451,-2121735
452,-44387
453,-73074
454,-92645
455,-51551
456,-30351
457,-46027
458,-76980
459,-78151
460,-36754
461,-52406
462,-72367
463,-64762
464,-25035
465,-35761
466,-58844
467,-80952
468,-35973
469,-48308
470,-63632
471,-73206
472,-32642
473,-30806
474,-49521
475,-87049
476,-47014
477,-42326
478,-66424
479,-80048
480,-49856
481,-25222
482,-40338
483,-73557
484,-60121
485,-34834
486,-59867
487,-82664
488,-67696
489,-22139
490,-34524
491,-57075
492,-76407
493,-36763
494,-48229
495,-70959
496,-81981
497,-29967
498,-28537
499,-44742
500,-80957
501,-46811
502,-36672
503,-55333
504,-76912
505,-50251
506,-26909
507,-41474
508,-78478
509,-69963
510,-34274
511,-60036
512,-78197
513,-73233
514,-24806
515,-34110
516,-62887
517,-82459
518,-34170
519,-49356
520,-66822
521,-78100
522,-29751
523,-28427
524,-45652
525,-81088
526,-48224
527,-39214
528,-63460
529,-82257
530,-44203
531,-22611
532,-37702
533,-67320
534,-69024
535,-32192
536,-49773
537,-68699
538,-66254
539,-24232
540,-34006
541,-57680
542,-80959
543,-34845
544,-44727
545,-60593
546,-72958
547,-32422
548,-28711
549,-48076
550,-88174
551,-44457
552,-39772
553,-64286
554,-75976
555,-46892
556,-22602
557,-36682
558,-69922
559,-61018
560,-32081
561,-53120
562,-82576
563,-66801
564,-19641
565,-31202
566,-54197
567,-81754
568,-37714
569,-43354
570,-65373
571,-77118
572,-31387
573,-28014
574,-45019
575,-81782
576,-50215
577,-37496
578,-57864
579,-73469
580,-47764
581,-26909
582,-42066
583,-79000
584,-70269
585,-34864
586,-62018
587,-69997
588,-62909
589,-24741
590,-34592
591,-62731
592,-85015
593,-36155
594,-49175
595,-68596
596,-78781
597,-29946
598,-28646
599,-46222
600,-84589
601,-49659
602,-39912
603,-66057
604,-86771
605,-45142
606,-23246
607,-39218
608,-69779
609,-71511
610,-35312
611,-54961
612,-74386
613,-66384
614,-25114
615,-35715
616,-58284
617,-88722
618,-38967
619,-45237
620,-60448
621,-80387
622,-36277
623,-30631
624,-48256
625,-88470
626,-50441
627,-40722
628,-65036
629,-78499
630,-52024
631,-25901
632,-40505
633,-82174
634,-70612
635,-34951
636,-60309
637,-73091
638,-67559
639,-24305
640,-34081
641,-59360
642,-83112
643,-37966
644,-50339
645,-73666
646,-85596
647,-29759
648,-28068
649,-44587
650,-83744
651,-54547
652,-37102
653,-58657
654,-80784
655,-48856
656,-25677
657,-40841
658,-74710
659,-75583
660,-34506
661,-52291
662,-67877
663,-64687
664,-26042
665,-35854
666,-58698
667,-81327
668,-36476
669,-48909
670,-64773
671,-74164
672,-31699
673,-29102
674,-48330
675,-91999
676,-49200
677,-41349
678,-64357
679,-78922
680,-48441
681,-23762
682,-38367
683,-70629
684,-63604
685,-35402
686,-57957
687,-84389
688,-69792
689,-21824
690,-33342
691,-54276
692,-83387
693,-39666
694,-44271
695,-65136
696,-81671
697,-34155
698,-29512
699,-47669
700,-83276
701,-50684
702,-37917
703,-59824
704,-76201
705,-53986
706,-27109
707,-40933
708,-75130
709,-66887
710,-34128
711,-59516
712,-73288
713,-71514
714,-25705
715,-33552
716,-60998
717,-84867
718,-36592
719,-49456
720,-69591
721,-83863
722,-31622
723,-27921
724,-45170
725,-82328
726,-53731
727,-37462
728,-63333
729,-83569
730,-50767
731,-23683
732,-39036
733,-67292
734,-69961
735,-34441
736,-54873
737,-70893
738,-67290
739,-26660
740,-35369
741,-57867
742,-80082
743,-36140
744,-46434
745,-62094
746,-75662
747,-34271
748,-29447
749,-47099
750,-79778
751,-43149
752,-39164
753,-64784
754,-81275
755,-50821
756,-24831
757,-38963
758,-76744
759,-67742
760,-35647
761,-61177
762,-83171
763,-67449
764,-21598
765,-34504
766,-55685
767,-84320
768,-40129
769,-44128
770,-65641
771,-82022
772,-35576
773,-29949
774,-45819
775,-88421
776,-55997
777,-36536
778,-56426
779,-72421
780,-49619
781,-26462
782,-40594
783,-75727
784,-66849
785,-34241
786,-58286
787,-68259
788,-70087
789,-26528
790,-34349
791,-60332
792,-82616
793,-35632
794,-52011
795,-72361
796,-82631
797,-31909
798,-27935
799,-44932
800,-85942
801,-52901
802,-38614
803,-63186
804,-86131
805,-47587
806,-22598
807,-38029
808,-67801
809,-72202
810,-33276
811,-49579
812,-68139
813,-66398
814,-24526
815,-33439
816,-54941
817,-88462
818,-39764
819,-43745
820,-59421
821,-71079
822,-33356
823,-30328
824,-47381
825,-85977
826,-50934
827,-39984
828,-65404
829,-77146
830,-52332
831,-25199
832,-39896
833,-74627
834,-68611
835,-34553
836,-56265
837,-76174
838,-70061
839,-22639
840,-32179
841,-55638
842,-82477
843,-39446
844,-43154
845,-67347
846,-86774
847,-33786
848,-28719
849,-44829
850,-77608
851,-52287
852,-36204
853,-57667
854,-74500
855,-50069
856,-25386
857,-39208
858,-70099
859,-63084
860,-32369
861,-56018
862,-66996
863,-66551
864,-25489
865,-33751
866,-58757
867,-85027
868,-34295
869,-43790
870,-64369
871,-77633
872,-27821
873,-20327
874,-35584
875,-77546
876,-43942
877,-32111
878,-59070
879,-83540
880,-47981
881,-23331
882,-41544
883,-72648
884,-78035
885,-40763
886,-57765
887,-79413
888,-73724
889,-27322
890,-36174
891,-55372
892,-84457
893,-38741
894,-43622
895,-59693
896,-78776
897,-35820
898,-29565
899,-46284
900,-81084
901,-48691
902,-39037
903,-63997
904,-75277
905,-52438
906,-23954
907,-37446
908,-74362
909,-67300
910,-33724
911,-57901
912,-74142
913,-66829
914,-22524
915,-31851
916,-52702
917,-77752
918,-38032
919,-45535
920,-72205
921,-90670
922,-32060
923,-27530
924,-43307
925,-81822
926,-57353
927,-35885
928,-56559
929,-78721
930,-53184
931,-25019
932,-38587
933,-68687
934,-70610
935,-32504
936,-49471
937,-63281
938,-63176
939,-23914
940,-33318
941,-57426
942,-83967
943,-35981
944,-49327
945,-66255
946,-71942
947,-33867
948,-27391
949,-44288
950,-84431
951,-48023
952,-38884
953,-64106
954,-80582
955,-46576
956,-21683
957,-37389
958,-67579
959,-70600
960,-33306
961,-50912
962,-75199
963,-70859
964,-22343
965,-31336
966,-50138
967,-78681
968,-37199
969,-39171
970,-58037
971,-78346
972,-34169
973,-27010
974,-42467
975,-78992
976,-48390
977,-36139
978,-61110
979,-70697
980,-49385
981,-22569
982,-35736
983,-70431
984,-65030
985,-29839
986,-53932
987,-67718
988,-67536
989,-22132
990,-29837
991,-48242
992,-74527
993,-35542
994,-42639
995,-68531
996,-85097
997,-30215
998,-24975
999,-41084
1000,-77231
1001,-52868
1002,-34735
1003,-58482
1004,-77425
1005,-53231
1006,-23169
1007,-37608
1008,-67691
1009,-70081
1010,-32716
1011,-50666
1012,-66347
1013,-71982
1014,-28242
1015,-35351
1016,-56759
1017,-81097
1018,-37276
1019,-47091
1020,-63311
1021,-78692
1022,-39425
1023,-29524
1024,-46977
1025,-90399
1026,-54348
1027,-40458
1028,-63534
1029,-82146
1030,-51838
1031,-23784
1032,-37444
1033,-65422
1034,-71783
1035,-34919
1036,-53509
1037,-75390
1038,-71039
1039,-22623
1040,-32596
1041,-50431
1042,-86966
1043,-44137
1044,-42616
1045,-60548
1046,-77443
1047,-33958
1048,-29472
1049,-46032
1050,-80210
1051,-49782
1052,-35992
1053,-56193
1054,-72944
1055,-54563
1056,-25272
1057,-38666
1058,-74228
1059,-74581
1060,-33790
1061,-54527
1062,-69419
1063,-73074
1064,-26455
1065,-32739
1066,-56133
1067,-82085
1068,-36777
1069,-46545
1070,-70075
1071,-88347
1072,-33310
1073,-26457
1074,-42706
1075,-76494
1076,-52433
1077,-36294
1078,-61407
1079,-83966
1080,-55399
1081,-23271
1082,-37444
1083,-65678
1084,-71774
1085,-33058
1086,-48504
1087,-63505
1088,-67196
1089,-27067
1090,-34307
1091,-57515
1092,-90558
1093,-39909
1094,-45829
1095,-64950
1096,-76926
1097,-38321
1098,-29196
1099,-45842
1100,-84813
1101,-50696
1102,-38327
1103,-63987
1104,-82274
1105,-56292
1106,-23727
1107,-37690
1108,-70070
1109,-69444
1110,-34548
1111,-57417
1112,-80437
1113,-72657
1114,-22727
1115,-33111
1116,-51187
1117,-80424
1118,-39594
1119,-40617
1120,-60979
1121,-81216
1122,-36494
1123,-27950
1124,-43464
1125,-83877
1126,-61451
1127,-34752
1128,-55454
1129,-77902
1130,-58041
1131,-25231
1132,-38349
1133,-71091
1134,-70126
1135,-33421
1136,-57700
1137,-65897
1138,-68576
1139,-26726
1140,-33570
1141,-54679
1142,-81297
1143,-37629
1144,-46619
1145,-65126
1146,-81666
1147,-34683
1148,-26572
1149,-42553
1150,-80793
1151,-52854
1152,-36642
1153,-61677
1154,-88752
1155,-53529
1156,-22497
1157,-38026
1158,-63776
1159,-72172
1160,-34077
1161,-49159
1162,-67072
1163,-71776
1164,-27806
1165,-33984
1166,-53982
1167,-89746
1168,-42175
1169,-44934
1170,-61278
1171,-70026
1172,-34811
1173,-29069
1174,-45377
1175,-81897
1176,-50206
1177,-37879
1178,-63405
1179,-73601
1180,-53960
1181,-23789
1182,-36799
1183,-72410
1184,-72948
1185,-33727
1186,-53299
1187,-75050
1188,-75467
1189,-24708
1190,-32441
1191,-52109
1192,-81071
1193,-41405
1194,-43437
1195,-67687
1196,-84544
1197,-35463
1198,-26275
1199,-41401
1200,-77709
1201,-56549
1202,-33711
1203,-51706
1204,-74561
1205,-58839
1206,-25819
1207,-38290
1208,-66376
1209,-67696
1210,-32572
1211,-52639
1212,-64990
1213,-68523
1214,-26727
1215,-32384
1216,-56361
1217,-88657
1218,-38830
1219,-45869
1220,-65087
1221,-77093
1222,-34531
1223,-25753
1224,-42983
1225,-80297
1226,-49701
1227,-36909
1228,-64054
1229,-84493
1230,-50862
1231,-21941
1232,-37578
1233,-67890
1234,-75286
1235,-33687
1236,-48765
1237,-69340
1238,-70091
1239,-24820
1240,-32750
1241,-51534
1242,-84266
1243,-40015
1244,-40843
1245,-56916
1246,-75887
1247,-38953
1248,-28870
1249,-45417
1250,-82849
1251,-52004
1252,-37131
1253,-62657
1254,-72489
1255,-54589
1256,-25071
1257,-37943
1258,-72811
1259,-73136
1260,-33322
1261,-55814
1262,-74594
1263,-76071
1264,-24839
1265,-31699
1266,-54171
1267,-86569
1268,-42461
1269,-43592
1270,-69579
1271,-90859
1272,-35330
1273,-26484
1274,-41977
1275,-76282
1276,-57091
1277,-34229
1278,-55324
1279,-77006
1280,-57842
1281,-24059
1282,-36852
1283,-68956
1284,-76284
1285,-31765
1286,-48286
1287,-62460
1288,-67561
1289,-23796
1290,-27382
1291,-47411
1292,-81477
1293,-33135
1294,-40879
1295,-59317
1296,-73075
1297,-36539
1298,-26562
1299,-45019
1300,-87131
1301,-58352
1302,-43713
1303,-64756
1304,-86904
1305,-59392
1306,-25514
1307,-39002
1308,-70854
1309,-79269
1310,-34449
1311,-49866
1312,-74481
1313,-75606
1314,-24349
1315,-31082
1316,-50587
1317,-87806
1318,-44594
1319,-41077
1320,-58271
1321,-80334
1322,-42480
1323,-28720
1324,-44205
1325,-83849
1326,-57765
1327,-36080
1328,-57122
1329,-73309
1330,-56807
1331,-25500
1332,-37861
1333,-72850
1334,-74774
1335,-33176
1336,-54626
1337,-69534
1338,-74861
1339,-26426
1340,-31632
1341,-52660
1342,-83089
1343,-39392
1344,-44671
1345,-69956
1346,-87732
1347,-34582
1348,-25381
1349,-41311
1350,-79057
1351,-59607
1352,-34626
1353,-55152
1354,-78428
1355,-58296
1356,-24424
1357,-37796
1358,-65381
1359,-78733
1360,-33457
1361,-48485
1362,-62027
1363,-70464
1364,-28608
1365,-33038
1366,-52139
1367,-79427
1368,-37967
1369,-44268
1370,-63369
1371,-76971
1372,-39057
1373,-26601
1374,-43215
1375,-84892
1376,-52257
1377,-36064
1378,-61219
1379,-77201
1380,-53118
1381,-21357
1382,-34421
1383,-61845
1384,-69222
1385,-32911
1386,-50795
1387,-76346
1388,-75356
1389,-23019
1390,-29484
1391,-46442
1392,-82071
1393,-41367
1394,-39059
1395,-55536
1396,-73367
1397,-37502
1398,-25807
1399,-41604
1400,-82337
1401,-56594
1402,-32331
1403,-52786
1404,-69512
1405,-55899
1406,-23536
1407,-34679
1408,-70116
1409,-76091
1410,-31425
1411,-52737
1412,-67597
1413,-70934
1414,-24950
1415,-29056
1416,-51903
1417,-85129
1418,-37906
1419,-43206
1420,-66766
1421,-83639
1422,-34140
1423,-24487
1424,-39984
1425,-76630
1426,-61261
1427,-34895
1428,-57361
1429,-81598
1430,-55339
1431,-22436
1432,-36999
1433,-63959
1434,-82120
1435,-35375
1436,-48664
1437,-66610
1438,-73567
1439,-28001
1440,-32590
1441,-52958
1442,-86110
1443,-41975
1444,-43891
1445,-61099
1446,-75562
1447,-41068
1448,-28852
1449,-46014
1450,-85369
1451,-55322
1452,-37623
1453,-62709
1454,-78637
1455,-56390
1456,-23741
1457,-36484
1458,-68034
1459,-75163
1460,-34746
1461,-50587
1462,-74986
1463,-75427
1464,-23324
1465,-31144
1466,-50609
1467,-87973
1468,-45163
1469,-40102
1470,-63213
1471,-83998
1472,-39407
1473,-27045
1474,-42721
1475,-81564
1476,-60145
1477,-34704
1478,-56062
1479,-73034
1480,-56811
1481,-25194
1482,-38124
1483,-69193
1484,-76303
1485,-33178
1486,-53387
1487,-66193
1488,-72108
1489,-27559
1490,-31617
1491,-52941
1492,-84822
1493,-39239
1494,-43412
1495,-63187
1496,-83729
1497,-36086
1498,-24777
1499,-41404
1500,-76333
1501,-56026
1502,-34568
1503,-57808
1504,-81741
1505,-56953
1506,-22845
1507,-37746
1508,-62963
1509,-77701
1510,-34337
1511,-46181
1512,-65049
1513,-77688
1514,-30257
1515,-33239
1516,-52890
1517,-80224
1518,-37596
1519,-44369
1520,-63294
1521,-78662
1522,-41558
1523,-26341
1524,-42771
1525,-84044
1526,-57228
1527,-36264
1528,-58694
1529,-76364
1530,-57500
1531,-23152
1532,-35425
1533,-62124
1534,-70770
1535,-33847
1536,-53407
1537,-78699
1538,-77121
1539,-22864
1540,-30835
1541,-50416
1542,-85833
1543,-45081
1544,-40388
1545,-61602
1546,-81202
1547,-39352
1548,-26977
1549,-41776
1550,-77859
1551,-60029
1552,-34466
1553,-53774
1554,-71399
1555,-59552
1556,-25771
1557,-37741
1558,-66608
1559,-67412
1560,-33030
1561,-53696
1562,-70451
1563,-77046
1564,-27129
1565,-30711
1566,-50612
1567,-79641
1568,-38893
1569,-47482
1570,-69472
1571,-88904
1572,-40167
1573,-25764
1574,-42467
1575,-79717
1576,-61582
1577,-35196
1578,-57912
1579,-81851
1580,-57549
1581,-23306
1582,-37669
1583,-62673
1584,-79491
1585,-34804
1586,-48774
1587,-65633
1588,-76327
1589,-30808
1590,-33569
1591,-52512
1592,-86561
1593,-41704
1594,-43355
1595,-63219
1596,-75382
1597,-39856
1598,-27481
1599,-43650
1600,-84767
1601,-57960
1602,-36160
1603,-62715
1604,-73455
1605,-57457
1606,-24014
1607,-36546
1608,-64632
1609,-73575
1610,-33639
1611,-50850
1612,-75031
1613,-77185
1614,-24898
1615,-30772
1616,-50061
1617,-86527
1618,-46054
1619,-42611
1620,-67111
1621,-85056
1622,-39613
1623,-26890
1624,-42747
1625,-78985
1626,-62412
1627,-34696
1628,-56434
1629,-73274
1630,-59803
1631,-25193
1632,-37324
1633,-69209
1634,-79604
1635,-33684
1636,-50816
1637,-64821
1638,-72833
1639,-28189
1640,-32369
1641,-52066
1642,-80391
1643,-39411
1644,-44182
1645,-64375
1646,-82296
1647,-41282
1648,-25090
1649,-40934
1650,-80429
1651,-54794
1652,-35135
1653,-59332
1654,-80407
1655,-54551
1656,-20789
1657,-35291
1658,-60867
1659,-77222
1660,-34770
1661,-46134
1662,-67858
1663,-77991
1664,-28314
1665,-32274
1666,-50839
1667,-88134
1668,-44949
1669,-40591
1670,-57447
1671,-76076
1672,-43436
1673,-28826
1674,-43760
1675,-78074
1676,-55562
1677,-35379
1678,-59808
1679,-74846
1680,-60711
1681,-24319
1682,-36310
1683,-66262
1684,-72744
1685,-34312
1686,-51411
1687,-69770
1688,-74178
1689,-25657
1690,-30946
1691,-50663
1692,-83417
1693,-43977
1694,-42463
1695,-68292
1696,-85672
1697,-39736
1698,-26161
1699,-41799
1700,-76567
1701,-63616
1702,-33793
1703,-53576
1704,-69283
1705,-56612
1706,-24142
1707,-36707
1708,-63870
1709,-75976
1710,-32324
1711,-47109
1712,-60866
1713,-67682
1714,-25430
1715,-25758
1716,-45258
1717,-79063
1718,-32905
1719,-36239
1720,-58828
1721,-77751
1722,-36880
1723,-22466
1724,-39023
1725,-76546
1726,-60562
1727,-40851
1728,-66053
1729,-86877
1730,-62600
1731,-24699
1732,-39720
1733,-64264
1734,-81974
1735,-36237
1736,-48134
1737,-69376
1738,-77249
1739,-27127
1740,-30577
1741,-47910
1742,-83781
1743,-43762
1744,-39983
1745,-58078
1746,-78269
1747,-44609
1748,-28242
1749,-44221
1750,-80088
1751,-58640
1752,-35596
1753,-63014
1754,-73885
1755,-56729
1756,-24261
1757,-36906
1758,-68316
1759,-76182
1760,-32677
1761,-55375
1762,-70087
1763,-73013
1764,-25768
1765,-29098
1766,-50520
1767,-89816
1768,-43284
1769,-42132
1770,-66021
1771,-84620
1772,-37792
1773,-24381
1774,-40026
1775,-71599
1776,-56477
1777,-33197
1778,-54804
1779,-76343
1780,-60336
1781,-23647
1782,-35864
1783,-63513
1784,-81331
1785,-33740
1786,-47606
1787,-61661
1788,-69524
1789,-28219
1790,-30759
1791,-49846
1792,-85573
1793,-41801
1794,-43735
1795,-62477
1796,-74987
1797,-41811
1798,-24542
1799,-40878
1800,-79380
1801,-55516
1802,-33263
1803,-56758
1804,-77761
1805,-60210
1806,-22367
1807,-33912
1808,-61037
1809,-77733
1810,-34242
1811,-45039
1812,-69666
1813,-74411
1814,-24264
1815,-28606
1816,-45408
1817,-81102
1818,-44377
1819,-38238
1820,-58210
1821,-78074
1822,-42046
1823,-25697
1824,-40182
1825,-78301
1826,-60514
1827,-32521
1828,-55577
1829,-68314
1830,-60427
1831,-23152
1832,-34031
1833,-63115
1834,-74673
1835,-31069
1836,-49184
1837,-68514
1838,-78915
1839,-27034
1840,-28526
1841,-49280
1842,-84799
1843,-41444
1844,-41084
1845,-65419
1846,-84345
1847,-38230
1848,-23607
1849,-39492
1850,-72627
1851,-63242
1852,-33996
1853,-54746
1854,-75090
1855,-59197
1856,-23182
1857,-37452
1858,-61311
1859,-80046
1860,-35417
1861,-47000
1862,-61011
1863,-72614
1864,-30056
1865,-32803
1866,-52782
1867,-88550
1868,-43290
1869,-43071
1870,-64466
1871,-73636
1872,-40794
1873,-26260
1874,-42104
1875,-81744
1876,-59157
1877,-35503
1878,-59673
1879,-78036
1880,-63389
1881,-23451
1882,-35752
1883,-64839
1884,-79222
1885,-35449
1886,-51711
1887,-76154
1888,-82390
1889,-25900
1890,-30354
1891,-46577
1892,-80492
1893,-46294
1894,-38036
1895,-58182
1896,-78357
1897,-42011
1898,-26456
1899,-41876
1900,-76954
1901,-64245
1902,-33600
1903,-53962
1904,-71935
1905,-67047
1906,-26910
1907,-36916
1908,-64947
1909,-75102
1910,-33854
1911,-50179
1912,-66672
1913,-74568
1914,-29705
1915,-31709
1916,-53360
1917,-94153
1918,-44028
1919,-43609
1920,-64437
1921,-83738
1922,-40759
1923,-24101
1924,-39019
1925,-77348
1926,-61057
1927,-35636
1928,-58494
1929,-81646
1930,-60861
1931,-21600
1932,-35276
1933,-57535
1934,-75382
1935,-34601
1936,-45202
1937,-63479
1938,-79238
1939,-29673
1940,-30994
1941,-50111
1942,-88397
1943,-46199
1944,-41022
1945,-61284
1946,-73043
1947,-41894
1948,-27360
1949,-43390
1950,-85957
1951,-62059
1952,-34728
1953,-59342
1954,-72655
1955,-62142
1956,-24126
1957,-35152
1958,-63401
1959,-74312
1960,-34188
1961,-52502
1962,-73257
1963,-78257
1964,-24759
1965,-28987
1966,-47186
1967,-83354
1968,-46956
1969,-39214
1970,-63664
1971,-85267
1972,-43069
1973,-25148
1974,-41769
1975,-74399
1976,-62326
1977,-33769
1978,-53040
1979,-69158
1980,-60459
1981,-24724
1982,-35879
1983,-61217
1984,-79357
1985,-34250
1986,-47870
1987,-60946
1988,-69246
1989,-29381
1990,-31755
1991,-50702
1992,-87327
1993,-43205
1994,-43207
1995,-64986
1996,-83352
1997,-44562
1998,-24864
1999,-40141
2000,-78318
2001,-59068
2002,-35448
2003,-59959
2004,-83119
2005,-60476
2006,-20677
2007,-34817
2008,-58073
2009,-78828
2010,-36330
2011,-47337
2012,-69602
2013,-80371
2014,-28673
2015,-30914
2016,-48967
2017,-88354
2018,-48404
2019,-37649
2020,-55152
2021,-73864
2022,-43556
2023,-27171
2024,-41992
2025,-77266
2026,-60886
2027,-34109
2028,-59283
2029,-74026
2030,-66991
2031,-24981
2032,-35640
2033,-64433
2034,-75772
2035,-33241
2036,-54096
2037,-69754
2038,-79729
2039,-28464
2040,-29269
2041,-47812
2042,-84938
2043,-46096
2044,-40570
2045,-65254
2046,-90447
2047,-41851
2048,-24676
2049,-41377
2050,-74769
2051,-62529
2052,-33124
2053,-53763
2054,-75849
2055,-63473
2056,-24079
2057,-35635
2058,-58526
2059,-75249
2060,-33886
2061,-46032
2062,-60402
2063,-70907
2064,-30107
2065,-30626
2066,-49450
2067,-84484
2068,-42311
2069,-43330
2070,-65479
2071,-74996
2072,-43674
2073,-25303
2074,-40250
2075,-79184
2076,-59491
2077,-34273
2078,-58700
2079,-82766
2080,-68277
2081,-22896
2082,-34421
2083,-63088
2084,-78911
2085,-35201
2086,-47715
2087,-73574
2088,-75151
2089,-24867
2090,-28336
2091,-46216
2092,-85206
2093,-48131
2094,-36887
2095,-57694
2096,-76734
2097,-42571
2098,-25388
2099,-40582
2100,-75969
2101,-64425
2102,-33320
2103,-54822
2104,-67489
2105,-60742
2106,-24807
2107,-35892
2108,-65971
2109,-86088
2110,-35664
2111,-52529
2112,-69236
2113,-75377
2114,-29646
2115,-29809
2116,-49219
2117,-84720
2118,-43601
2119,-42184
2120,-64194
2121,-88312
2122,-43492
2123,-24037
2124,-40461
2125,-73519
2126,-63815
2127,-34712
2128,-56300
2129,-80641
2130,-63037
2131,-22459
2132,-35309
2133,-56487
2134,-78694
2135,-37214
2136,-45967
2137,-61795
2138,-77248
2139,-30319
2140,-31658
2141,-49267
2142,-89984
2143,-48966
2144,-40664
2145,-61461
2146,-77099
2147,-45717
2148,-24443
2149,-38620
2150,-77541
2151,-55286
2152,-29341
2153,-56214
2154,-67579
2155,-58420
2156,-17432
2157,-26955
2158,-57026
2159,-72332
2160,-30889
2161,-52091
2162,-74924
2163,-83369
2164,-31014
2165,-35194
2166,-53301
2167,-89763
2168,-52345
2169,-42620
2170,-65485
2171,-88547
2172,-45018
2173,-23701
2174,-39189
2175,-75164
2176,-72420
2177,-33074
2178,-50249
2179,-70272
2180,-63549
2181,-25728
2182,-36719
2183,-62608
2184,-85314
2185,-35827
2186,-50954
2187,-64050
2188,-73124
2189,-30767
2190,-30852
2191,-50581
2192,-88310
2193,-43646
2194,-43270
2195,-65000
2196,-77755
2197,-43343
2198,-24403
2199,-40196
2200,-77227
2201,-59970
2202,-35302
2203,-58552
2204,-79286
2205,-65287
2206,-21218
2207,-33609
2208,-59384
2209,-85136
2210,-37607
2211,-47928
2212,-70242
2213,-77697
2214,-28594
2215,-29084
2216,-46616
2217,-87884
2218,-49483
2219,-37361
2220,-54867
2221,-80031
2222,-48656
2223,-26906
2224,-40725
2225,-76945
2226,-64894
2227,-33582
2228,-56811
2229,-69115
2230,-67714
2231,-26245
2232,-35617
2233,-61908
2234,-76674
2235,-33855
2236,-53390
2237,-68319
2238,-74884
2239,-27907
2240,-27214
2241,-46102
2242,-81427
2243,-42722
2244,-38585
2245,-63072
2246,-84760
2247,-41697
2248,-22793
2249,-38437
2250,-68842
2251,-64219
2252,-32051
2253,-53799
2254,-73486
2255,-62740
2256,-23056
2257,-32888
2258,-55317
2259,-81960
2260,-34186
2261,-42891
2262,-56756
2263,-70983
2264,-30209
2265,-28932
2266,-46131
2267,-80484
2268,-40945
2269,-37621
2270,-62092
2271,-75203
2272,-44184
2273,-22914
2274,-38599
2275,-76508
2276,-57743
2277,-31474
2278,-58581
2279,-73627
2280,-63356
2281,-21437
2282,-32491
2283,-59507
2284,-77944
2285,-34352
2286,-47024
2287,-74556
2288,-82994
2289,-25502
2290,-28499
2291,-44109
2292,-80029
2293,-52143
2294,-36858
2295,-58156
2296,-76581
2297,-45058
2298,-26427
2299,-40697
2300,-78937
2301,-74172
2302,-35119
2303,-57932
2304,-69262
2305,-63665
2306,-26987
2307,-36858
2308,-62110
2309,-82050
2310,-36183
2311,-52204
2312,-67718
2313,-75406
2314,-31462
2315,-30831
2316,-49927
2317,-88504
2318,-46707
2319,-41901
2320,-63998
2321,-83463
2322,-44871
2323,-24410
2324,-39101
2325,-73845
2326,-65252
2327,-33961
2328,-55571
2329,-83335
2330,-66034
2331,-22252
2332,-34779
2333,-57528
2334,-81111
2335,-37266
2336,-46652
2337,-65730
2338,-83428
2339,-35314
2340,-31629
2341,-48552
2342,-88306
2343,-48751
2344,-39492
2345,-58519
2346,-70739
2347,-44777
2348,-26269
2349,-40620
2350,-77044
2351,-64289
2352,-34214
2353,-60159
2354,-68590
2355,-62989
2356,-24602
2357,-34782
2358,-62472
2359,-78603
2360,-35371
2361,-52365
2362,-74219
2363,-81333
2364,-26561
2365,-27659
2366,-45719
2367,-82232
2368,-46495
2369,-36791
2370,-60276
2371,-85550
2372,-46570
2373,-24256
2374,-39422
2375,-67836
2376,-62511
2377,-32444
2378,-50235
2379,-69133
2380,-65691
2381,-26119
2382,-36291
2383,-61271
2384,-80581
2385,-35151
2386,-49479
2387,-64153
2388,-74857
2389,-31286
2390,-30217
2391,-48104
2392,-83645
2393,-43844
2394,-42576
2395,-66758
2396,-79079
2397,-46126
2398,-24999
2399,-39771
2400,-75176
2401,-64912
2402,-35557
2403,-60177
2404,-79143
2405,-63887
2406,-21781
2407,-34526
2408,-58273
2409,-84699
2410,-38444
2411,-46389
2412,-65744
2413,-80516
2414,-32672
2415,-29370
2416,-46290
2417,-83771
2418,-48606
2419,-36751
2420,-56995
2421,-77913
2422,-49836
2423,-26692
2424,-39856
2425,-75287
2426,-65832
2427,-34030
2428,-60361
2429,-73013
2430,-66802
2431,-25492
2432,-35977
2433,-61934
2434,-78036
2435,-33864
2436,-51558
2437,-69247
2438,-81337
2439,-31187
2440,-29010
2441,-45946
2442,-80824
2443,-46255
2444,-39911
2445,-65165
2446,-87782
2447,-43138
2448,-23264
2449,-38862
2450,-67075
2451,-66938
2452,-33194
2453,-51581
2454,-77587
2455,-69009
2456,-24169
2457,-34363
2458,-55266
2459,-74474
2460,-33765
2461,-46037
2462,-61839
2463,-74316
2464,-30424
2465,-30481
2466,-49907
2467,-86766
2468,-46004
2469,-41789
2470,-65060
2471,-75670
2472,-47636
2473,-24902
2474,-38576
2475,-75382
2476,-63282
2477,-34831
2478,-59088
2479,-77382
2480,-67942
2481,-22273
2482,-32617
2483,-57892
2484,-79517
2485,-35486
2486,-51447
2487,-77641
2488,-88390
2489,-28792
2490,-28232
2491,-44417
2492,-83949
2493,-55984
2494,-37199
2495,-57892
2496,-76329
2497,-46711
2498,-25469
2499,-40549
2500,-75691
2501,-71931
2502,-34002
2503,-54819
2504,-70299
2505,-69391
2506,-26379
2507,-35129
2508,-59316
2509,-79760
2510,-35027
2511,-50621
2512,-67139
2513,-72659
2514,-29857
2515,-28290
2516,-47215
2517,-85264
2518,-45194
2519,-40791
2520,-65266
2521,-82344
2522,-45620
2523,-23168
2524,-37422
2525,-70720
2526,-69307
2527,-34791
2528,-55628
2529,-79751
2530,-66320
2531,-21524
2532,-33882
2533,-56147
2534,-84464
2535,-36971
2536,-43231
2537,-62311
2538,-74430
2539,-31184
2540,-30267
2541,-46200
2542,-86718
2543,-52297
2544,-38291
2545,-60598
2546,-75764
2547,-50897
2548,-27094
2549,-41741
2550,-77148
2551,-64327
2552,-34802
2553,-61586
2554,-73069
2555,-71506
2556,-25184
2557,-34551
2558,-61932
2559,-81823
2560,-35403
2561,-48290
2562,-69859
2563,-84637
2564,-29731
2565,-27448
2566,-43396
2567,-79931
2568,-49532
2569,-37639
2570,-63808
2571,-84462
2572,-44776
2573,-23452
2574,-38587
2575,-67869
2576,-68454
2577,-33306
2578,-48848
2579,-69412
2580,-66731
2581,-22628
2582,-30996
2583,-51944
2584,-76583
2585,-31421
2586,-39727
2587,-55094
2588,-69704
2589,-28365
2590,-24414
2591,-41644
2592,-82232
2593,-47355
2594,-41261
2595,-67937
2596,-81927
2597,-51106
2598,-30224
2599,-46099
2600,-82819
2601,-67801
2602,-38636
2603,-63339
2604,-77361
2605,-68176
2606,-23902
2607,-34612
2608,-55910
2609,-76382
2610,-36302
2611,-46538
2612,-71033
2613,-83064
2614,-29256
2615,-28972
2616,-46011
2617,-83174
2618,-54027
2619,-35960
2620,-55362
2621,-77426
2622,-47189
2623,-25365
2624,-39264
2625,-72843
2626,-71018
2627,-33719
2628,-54782
2629,-66835
2630,-64140
2631,-26247
2632,-35090
2633,-62362
2634,-85080
2635,-35494
2636,-51648
2637,-68926
2638,-75826
2639,-32337
2640,-29717
2641,-48430
2642,-87396
2643,-45583
2644,-39882
2645,-62861
2646,-81310
2647,-49179
2648,-23869
2649,-38869
2650,-73807
2651,-67541
2652,-33754
2653,-56371
2654,-80892
2655,-63759
2656,-22127
2657,-33765
2658,-54181
2659,-82127
2660,-37069
2661,-41690
2662,-61781
2663,-75804
2664,-29714
2665,-28384
2666,-44522
2667,-83824
2668,-50522
2669,-36066
2670,-56291
2671,-69392
2672,-42877
2673,-24329
2674,-37941
2675,-74528
2676,-69341
2677,-32579
2678,-55449
2679,-67051
2680,-65193
2681,-23267
2682,-32051
2683,-59259
2684,-79901
2685,-32797
2686,-47528
2687,-65240
2688,-82045
2689,-29998
2690,-26009
2691,-43910
2692,-81589
2693,-45043
2694,-34664
2695,-61044
2696,-83247
2697,-45244
2698,-21233
2699,-36355
2700,-65327
2701,-68505
2702,-31220
2703,-49860
2704,-68148
2705,-65024
2706,-23474
2707,-32038
2708,-52354
2709,-79894
2710,-35503
2711,-45123
2712,-60590
2713,-76590
2714,-33536
2715,-28171
2716,-46321
2717,-89999
2718,-49309
2719,-39134
2720,-64057
2721,-76142
2722,-47899
2723,-25064
2724,-39243
2725,-77942
2726,-67638
2727,-35892
2728,-62851
2729,-78059
2730,-66536
2731,-23147
2732,-33542
2733,-57705
2734,-82471
2735,-38766
2736,-48233
2737,-74773
2738,-89018
2739,-31972
2740,-29235
2741,-45951
2742,-81396
2743,-51642
2744,-35986
2745,-57769
2746,-78052
2747,-48377
2748,-25441
2749,-39776
2750,-74819
2751,-72567
2752,-33983
2753,-56109
2754,-70471
2755,-66677
2756,-24916
2757,-34544
2758,-59129
2759,-79009
2760,-34781
2761,-49146
2762,-66551
2763,-77532
2764,-32022
2765,-27364
2766,-45444
2767,-83849
2768,-45628
2769,-40051
2770,-64723
2771,-87535
2772,-49221
2773,-22664
2774,-38716
2775,-71387
2776,-69397
2777,-34245
2778,-54080
2779,-75947
2780,-66421
2781,-23967
2782,-34688
2783,-54476
2784,-82165
2785,-38040
2786,-42967
2787,-60623
2788,-75395
2789,-32652
2790,-29230
2791,-47053
2792,-86309
2793,-50648
2794,-39639
2795,-62526
2796,-73319
2797,-46882
2798,-25176
2799,-39582
2800,-73934
2801,-65416
2802,-33748
2803,-58024
2804,-71581
2805,-69108
2806,-24214
2807,-32149
2808,-55915
2809,-77716
2810,-36877
2811,-46836
2812,-71602
2813,-84984
2814,-28055
2815,-26672
2816,-43501
2817,-79267
2818,-53270
2819,-37071
2820,-60752
2821,-78820
2822,-46016
2823,-24225
2824,-40057
2825,-70257
2826,-71811
2827,-33258
2828,-51521
2829,-64517
2830,-67832
2831,-28100
2832,-36339
2833,-59974
2834,-86106
2835,-36382
2836,-45701
2837,-62234
2838,-75541
2839,-32647
2840,-27922
2841,-46344
2842,-86533
2843,-47935
2844,-39071
2845,-60108
2846,-76474
2847,-49370
2848,-24289
2849,-38121
2850,-74375
2851,-67641
2852,-33973
2853,-56382
2854,-80890
2855,-69636
2856,-22356
2857,-34537
2858,-54107
2859,-85379
2860,-39296
2861,-43404
2862,-62030
2863,-78282
2864,-34116
2865,-29846
2866,-45372
2867,-81397
2868,-51133
2869,-36954
2870,-57415
2871,-73642
2872,-48307
2873,-25869
2874,-40687
2875,-78329
2876,-70331
2877,-33874
2878,-62838
2879,-71449
2880,-65452
2881,-25212
2882,-33717
2883,-57938
2884,-79482
2885,-34857
2886,-48787
2887,-66679
2888,-83016
2889,-30957
2890,-27122
2891,-43572
2892,-81129
2893,-52582
2894,-36605
2895,-61259
2896,-86100
2897,-49296
2898,-23966
2899,-38473
2900,-69405
2901,-71070
2902,-33426
2903,-49751
2904,-69959
2905,-69549
2906,-26569
2907,-35874
2908,-58163
2909,-77566
2910,-34957
2911,-44581
2912,-62276
2913,-73137
2914,-32314
2915,-30091
2916,-48529
2917,-90409
2918,-49194
2919,-38946
2920,-61639
2921,-79171
2922,-50999
2923,-24127
2924,-38494
2925,-73415
2926,-67112
2927,-34143
2928,-54592
2929,-81408
2930,-69404
2931,-21655
2932,-32724
2933,-56194
2934,-84265
2935,-38335
2936,-44271
2937,-69375
2938,-84526
2939,-33832
2940,-28122
2941,-44116
2942,-79921
2943,-50285
2944,-35353
2945,-54871
2946,-71505
2947,-48332
2948,-25090
2949,-38927
2950,-74766
2951,-70387
2952,-32809
2953,-56531
2954,-66759
2955,-65088
2956,-24582
2957,-32514
2958,-56149
2959,-77000
2960,-34439
2961,-47262
2962,-65425
2963,-80829
2964,-31519
2965,-26992
2966,-43602
2967,-80454
2968,-49707
2969,-37522
2970,-63266
2971,-89254
2972,-50028
2973,-23209
2974,-38770
2975,-69227
2976,-74305
2977,-34639
2978,-52132
2979,-70859
2980,-65312
2981,-24514
2982,-34929
2983,-55130
2984,-84344
2985,-37992
2986,-44811
2987,-59897
2988,-77381
2989,-36051
2990,-29704
2991,-46123
2992,-85045
2993,-49909
2994,-38729
2995,-61714
2996,-74954
2997,-50441
2998,-25217
2999,-39798
3000,-76727
3001,-68073
3002,-33419
3003,-57646
3004,-75429
3005,-71832
3006,-21949
3007,-30231
3008,-50439
3009,-74640
3010,-32305
3011,-39684
3012,-65099
3013,-80683
3014,-27891
3015,-23747
3016,-40140
3017,-78207
3018,-54050
3019,-36892
3020,-59025
3021,-83057
3022,-55949
3023,-30162
3024,-45097
3025,-80167
3026,-81421
3027,-35817
3028,-54189
3029,-68512
3030,-69391
3031,-25761
3032,-33449
3033,-57385
3034,-81449
3035,-36012
3036,-50237
3037,-68814
3038,-80525
3039,-35882
3040,-28979
3041,-46621
3042,-87284
3043,-48390
3044,-39021
3045,-63051
3046,-85869
3047,-50489
3048,-22580
3049,-37479
3050,-71314
3051,-70998
3052,-33805
3053,-52552
3054,-80844
3055,-72783
3056,-23248
3057,-33172
3058,-52123
3059,-76641
3060,-36559
3061,-45059
3062,-63942
3063,-80542
3064,-37022
3065,-29153
3066,-45872
3067,-89095
3068,-55529
3069,-37622
3070,-59803
3071,-73138
3072,-51537
3073,-25833
3074,-40431
3075,-77793
3076,-71754
3077,-32207
3078,-55791
3079,-68700
3080,-67368
3081,-23502
3082,-31501
3083,-57636
3084,-82900
3085,-35652
3086,-47088
3087,-67909
3088,-79671
3089,-30553
3090,-27526
3091,-44197
3092,-82368
3093,-54467
3094,-35537
3095,-60445
3096,-85303
3097,-51921
3098,-22761
3099,-37970
3100,-66171
3101,-69052
3102,-31535
3103,-48277
3104,-63963
3105,-67529
3106,-25142
3107,-34089
3108,-56769
3109,-83902
3110,-34937
3111,-43684
3112,-59722
3113,-74004
3114,-33227
3115,-26964
3116,-44190
3117,-85494
3118,-47772
3119,-35271
3120,-58204
3121,-80734
3122,-50751
3123,-21729
3124,-35160
3125,-69194
3126,-61844
3127,-30338
3128,-55299
3129,-75209
3130,-66664
3131,-20013
3132,-29431
3133,-51337
3134,-80038
3135,-37287
3136,-40070
3137,-63148
3138,-83872
3139,-33502
3140,-27906
3141,-43721
3142,-81240
3143,-54164
3144,-34241
3145,-53029
3146,-76866
3147,-52881
3148,-24958
3149,-38137
3150,-68290
3151,-64761
3152,-32853
3153,-55794
3154,-69326
3155,-69717
3156,-27228
3157,-34926
3158,-59376
3159,-84406
3160,-36604
3161,-49439
3162,-69166
3163,-81069
3164,-34062
3165,-28497
3166,-45151
3167,-79837
3168,-47126
3169,-39464
3170,-62538
3171,-88061
3172,-51533
3173,-22911
3174,-37339
3175,-67211
3176,-69984
3177,-34361
3178,-52971
3179,-78547
3180,-75875
3181,-25019
3182,-33909
3183,-55442
3184,-88367
3185,-40266
3186,-42923
3187,-59167
3188,-74465
3189,-36523
3190,-30426
3191,-46625
3192,-86119
3193,-54349
3194,-38974
3195,-62447
3196,-72554
3197,-52135
3198,-26119
3199,-38865
3200,-76217
3201,-71487
3202,-33782
3203,-57914
3204,-70109
3205,-66640
3206,-24335
3207,-32702
3208,-57696
3209,-82674
3210,-36592
3211,-47755
3212,-73160
3213,-86054
3214,-30021
3215,-26756
3216,-44131
3217,-81331
3218,-53610
3219,-34917
3220,-56696
3221,-77125
3222,-52247
3223,-24032
3224,-37852
3225,-66922
3226,-68858
3227,-32741
3228,-51932
3229,-68584
3230,-71278
3231,-27639
3232,-34124
3233,-57371
3234,-84625
3235,-37072
3236,-46150
3237,-65533
3238,-74821
3239,-33720
3240,-27761
3241,-46238
3242,-85384
3243,-48732
3244,-38547
3245,-63042
3246,-80069
3247,-52271
3248,-23786
3249,-38261
3250,-70071
3251,-67392
3252,-34627
3253,-55752
3254,-75524
3255,-66591
3256,-21057
3257,-32336
3258,-52408
3259,-85986
3260,-41659
3261,-42784
3262,-63176
3263,-79151
3264,-34219
3265,-28804
3266,-44854
3267,-86007
3268,-56876
3269,-35555
3270,-55842
3271,-74229
3272,-52111
3273,-26031
3274,-40252
3275,-74621
3276,-75266
3277,-34554
3278,-60412
3279,-72591
3280,-66447
3281,-24907
3282,-34015
3283,-57746
3284,-84175
3285,-37712
3286,-50872
3287,-69986
3288,-84274
3289,-34212
3290,-27821
3291,-43798
3292,-83108
3293,-53336
3294,-38697
3295,-64042
3296,-88160
3297,-50767
3298,-22496
3299,-37334
3300,-65754
3301,-73316
3302,-33891
3303,-48902
3304,-71227
3305,-70984
3306,-25988
3307,-35319
3308,-54950
3309,-86615
3310,-39973
3311,-43451
3312,-58696
3313,-73809
3314,-35670
3315,-29677
3316,-45804
3317,-89597
3318,-54892
3319,-39012
3320,-62481
3321,-75623
3322,-53126
3323,-24662
3324,-37904
3325,-73659
3326,-67995
3327,-33080
3328,-55608
3329,-71821
3330,-69502
3331,-23964
3332,-31874
3333,-55938
3334,-83242
3335,-37827
3336,-46177
3337,-72876
3338,-86754
3339,-31766
3340,-27028
3341,-42731
3342,-74692
3343,-51296
3344,-35860
3345,-56891
3346,-78543
3347,-52239
3348,-24711
3349,-38846
3350,-69487
3351,-70993
3352,-32376
3353,-50432
3354,-65561
3355,-65584
3356,-25764
3357,-33532
3358,-53906
3359,-77761
3360,-35859
3361,-47488
3362,-65243
3363,-76367
3364,-36724
3365,-27840
3366,-44950
3367,-83448
3368,-48297
3369,-37654
3370,-62729
3371,-80961
3372,-52603
3373,-22016
3374,-36009
3375,-67415
3376,-69712
3377,-34131
3378,-54362
3379,-78321
3380,-72865
3381,-22612
3382,-31741
3383,-50714
3384,-84359
3385,-41092
3386,-40822
3387,-60629
3388,-81837
3389,-37669
3390,-28373
3391,-45402
3392,-83817
3393,-57002
3394,-36266
3395,-58269
3396,-74819
3397,-53905
3398,-26107
3399,-39215
3400,-70296
3401,-69602
3402,-33907
3403,-57747
3404,-70045
3405,-70948
3406,-26429
3407,-33427
3408,-57987
3409,-88349
3410,-38588
3411,-48820
3412,-68434
3413,-85215
3414,-35031
3415,-27181
3416,-44570
3417,-85432
3418,-51759
3419,-37542
3420,-62619
3421,-91246
3422,-53039
3423,-22155
3424,-36906
3425,-64057
3426,-73771
3427,-33907
3428,-49306
3429,-70387
3430,-69532
3431,-23797
3432,-30571
3433,-50672
3434,-86007
3435,-33161
3436,-34072
3437,-47984
3438,-65052
3439,-29807
3440,-23526
3441,-40048
3442,-81574
3443,-51951
3444,-37686
3445,-65302
3446,-82204
3447,-59493
3448,-30477
3449,-45428
3450,-81414
3451,-73429
3452,-35442
3453,-58621
3454,-74977
3455,-71499
3456,-22486
3457,-30677
3458,-52054
3459,-81569
3460,-39238
3461,-43916
3462,-67072
3463,-85557
3464,-31328
3465,-26254
3466,-42046
3467,-77507
3468,-58717
3469,-34684
3470,-54723
3471,-77459
3472,-51249
3473,-23684
3474,-38163
3475,-68579
3476,-75747
3477,-32910
3478,-50077
3479,-64500
3480,-65213
3481,-26409
3482,-34006
3483,-55961
3484,-88103
3485,-39691
3486,-45925
3487,-63229
3488,-74375
3489,-36374
3490,-28446
3491,-45714
3492,-84576
3493,-48803
3494,-38039
3495,-61489
3496,-78690
3497,-52019
3498,-21980
3499,-35153
3500,-69419
3501,-70442
3502,-33709
3503,-53835
3504,-80804
3505,-74792
3506,-22280
3507,-31234
3508,-51204
3509,-80389
3510,-39169
3511,-42162
3512,-64179
3513,-78522
3514,-33552
3515,-26929
3516,-42127
3517,-78189
3518,-54302
3519,-34224
3520,-52546
3521,-69570
3522,-52972
3523,-24316
3524,-36781
3525,-71005
3526,-73472
3527,-31776
3528,-53192
3529,-64712
3530,-66197
3531,-24091
3532,-30313
3533,-53748
3534,-83272
3535,-35374
3536,-43517
3537,-62550
3538,-79109
3539,-32539
3540,-24437
3541,-40122
3542,-76515
3543,-48713
3544,-34385
3545,-60417
3546,-82096
3547,-49159
3548,-19312
3549,-33816
3550,-60141
3551,-70014
3552,-30760
3553,-47082
3554,-68509
3555,-71677
3556,-23549
3557,-30277
3558,-51061
3559,-83801
3560,-37031
3561,-41277
3562,-57868
3563,-71024
3564,-34174
3565,-26641
3566,-43133
3567,-79643
3568,-50472
3569,-36925
3570,-63543
3571,-74516
3572,-52877
3573,-24511
3574,-37811
3575,-71305
3576,-72441
3577,-33140
3578,-55497
3579,-73868
3580,-76945
3581,-25146
3582,-32333
3583,-54704
3584,-83510
3585,-38597
3586,-44148
3587,-69199
3588,-83214
3589,-31159
3590,-27129
3591,-42589
3592,-79152
3593,-55069
3594,-35343
3595,-57329
3596,-77882
3597,-54670
3598,-24681
3599,-38366
3600,-67722
3601,-76033
3602,-33841
3603,-49789
3604,-63814
3605,-69170
3606,-27263
3607,-33981
3608,-55211
3609,-82564
3610,-37215
3611,-45803
3612,-63106
3613,-80519
3614,-37359
3615,-27111
3616,-44240
3617,-86019
3618,-50750
3619,-37011
3620,-60616
3621,-81860
3622,-53116
3623,-22750
3624,-37419
3625,-68686
3626,-68840
3627,-34374
3628,-56041
3629,-79814
3630,-70489
3631,-22152
3632,-31631
3633,-52409
3634,-81517
3635,-39509
3636,-40913
3637,-61689
3638,-81487
3639,-35362
3640,-28421
3641,-44014
3642,-81939
3643,-58492
3644,-35990
3645,-55434
3646,-70280
3647,-53164
3648,-25822
3649,-38282
3650,-71370
3651,-74394
3652,-34374
3653,-57125
3654,-69514
3655,-70156
3656,-25911
3657,-32566
3658,-55818
3659,-82747
3660,-36991
3661,-47011
3662,-66938
3663,-78489
3664,-33712
3665,-26899
3666,-43579
3667,-85232
3668,-52832
3669,-37681
3670,-62009
3671,-87020
3672,-52406
3673,-22354
3674,-38423
3675,-62342
3676,-68041
3677,-33527
3678,-51106
3679,-71050
3680,-73326
3681,-27497
3682,-34136
3683,-52755
3684,-82493
3685,-40622
3686,-42716
3687,-60319
3688,-79907
3689,-38657
3690,-28935
3691,-44856
3692,-81639
3693,-53955
3694,-36716
3695,-60664
3696,-72866
3697,-52157
3698,-25191
3699,-39087
3700,-69738
3701,-67206
3702,-33057
3703,-54375
3704,-68174
3705,-68359
3706,-23939
3707,-30957
3708,-53882
3709,-81381
3710,-38116
3711,-45577
3712,-70730
3713,-84586
3714,-31881
3715,-26652
3716,-43099
3717,-75146
3718,-56068
3719,-35399
3720,-60226
3721,-83661
3722,-57898
3723,-24261
3724,-38129
3725,-66159
3726,-76051
3727,-33964
3728,-49806
3729,-63554
3730,-68054
3731,-27164
3732,-33466
3733,-54352
3734,-84166
3735,-37742
3736,-44977
3737,-63259
3738,-72514
3739,-34695
3740,-27123
3741,-43638
3742,-83989
3743,-50256
3744,-38095
3745,-63634
3746,-76486
3747,-50425
3748,-22594
3749,-37159
3750,-72529
3751,-72253
3752,-34253
3753,-55169
3754,-78874
3755,-75938
3756,-23022
3757,-31581
3758,-51641
3759,-82170
3760,-40762
3761,-42543
3762,-64246
3763,-81299
3764,-36432
3765,-27884
3766,-43407
3767,-86093
3768,-62234
3769,-34856
3770,-55644
3771,-68490
3772,-51970
3773,-25847
3774,-39086
3775,-71976
3776,-76035
3777,-33290
3778,-54046
3779,-68199
3780,-66937
3781,-26931
3782,-33593
3783,-58033
3784,-87671
3785,-36654
3786,-48023
3787,-64854
3788,-77537
3789,-36656
3790,-26960
3791,-44815
3792,-88702
3793,-51819
3794,-36389
3795,-60635
3796,-84244
3797,-51872
3798,-21584
3799,-36521
3800,-65199
3801,-78169
3802,-34291
3803,-50241
3804,-75319
3805,-74597
3806,-24194
3807,-31065
3808,-50941
3809,-81594
3810,-38554
3811,-41186
3812,-57481
3813,-78977
3814,-38219
3815,-27260
3816,-43955
3817,-86082
3818,-54648
3819,-35601
3820,-58717
3821,-68361
3822,-53368
3823,-25318
3824,-38358
3825,-76017
3826,-77525
3827,-33806
3828,-57748
3829,-70366
3830,-72501
3831,-25785
3832,-31907
3833,-54405
3834,-83087
3835,-37808
3836,-48291
3837,-68849
3838,-84762
3839,-33622
3840,-26331
3841,-42566
3842,-78734
3843,-55783
3844,-35453
3845,-60018
3846,-82906
3847,-52804
3848,-23167
3849,-37982
3850,-66587
3851,-81440
3852,-34854
3853,-48825
3854,-66092
3855,-72849
3856,-28376
3857,-33537
3858,-53413
3859,-84064
3860,-38270
3861,-42067
3862,-60491
3863,-73718
3864,-35067
3865,-23416
3866,-37518
3867,-73486
3868,-44141
3869,-29719
3870,-55648
3871,-70634
3872,-51481
3873,-19642
3874,-33826
3875,-66660
3876,-71642
3877,-38939
3878,-60824
3879,-80646
3880,-76602
3881,-26026
3882,-34885
3883,-52216
3884,-82617
3885,-41516
3886,-40225
3887,-65034
3888,-85342
3889,-36342
3890,-26219
3891,-43178
3892,-77518
3893,-53130
3894,-34362
3895,-55437
3896,-72554
3897,-56111
3898,-25359
3899,-38211
3900,-69217
3901,-69837
3902,-31746
3903,-54349
3904,-67304
3905,-71167
3906,-27456
3907,-33532
3908,-56167
3909,-87489
3910,-37646
3911,-46042
3912,-64432
3913,-78997
3914,-34838
3915,-26246
3916,-43309
3917,-82253
3918,-50999
3919,-36250
3920,-60990
3921,-86276
3922,-55369
3923,-22343
3924,-37756
3925,-67890
3926,-79534
3927,-35311
3928,-51601
3929,-72124
3930,-74044
3931,-26187
3932,-32401
3933,-51934
3934,-89902
3935,-42195
3936,-40767
3937,-57293
3938,-76118
3939,-38833
3940,-28497
3941,-44052
3942,-83072
3943,-55659
3944,-34603
3945,-57234
3946,-72944
3947,-54702
3948,-23895
3949,-36525
3950,-71579
3951,-72271
3952,-31195
3953,-53264
3954,-71637
3955,-73536
3956,-23816
3957,-29862
3958,-51995
3959,-83511
3960,-37649
3961,-40227
3962,-65016
3963,-81277
3964,-31066
3965,-24142
3966,-39376
3967,-76665
3968,-55185
3969,-33057
3970,-54593
3971,-76992
3972,-54101
3973,-21597
3974,-34241
3975,-61754
3976,-69840
3977,-30821
3978,-45669
3979,-62031
3980,-70852
3981,-26151
3982,-30716
3983,-51057
3984,-81991
3985,-36450
3986,-40932
3987,-60945
3988,-74692
3989,-36477
3990,-25710
3991,-41604
3992,-78984
3993,-48654
3994,-33775
3995,-56617
3996,-80848
3997,-58384
3998,-22311
3999,-35451
4000,-65073
4001,-68481
4002,-33337
4003,-51361
4004,-76614
4005,-75828
4006,-22690
4007,-30461
4008,-49384
4009,-82575
4010,-42234
4011,-40495
4012,-64186
4013,-84605
4014,-38776
4015,-27146
4016,-43149
4017,-78172
4018,-57569
4019,-35457
4020,-53255
4021,-73653
4022,-57682
4023,-25967
4024,-39593
4025,-71969
4026,-75969
4027,-33940
4028,-54907
4029,-68231
4030,-73070
4031,-27411
4032,-33496
4033,-58455
4034,-91575
4035,-38612
4036,-46516
4037,-64859
4038,-83269
4039,-37814
4040,-27094
4041,-44063
4042,-86715
4043,-57909
4044,-36149
4045,-60629
4046,-84912
4047,-54361
4048,-22006
4049,-36599
4050,-65462
4051,-80503
4052,-35307
4053,-48832
4054,-70451
4055,-75169
4056,-26386
4057,-32609
4058,-51806
4059,-82766
4060,-39516
4061,-39277
4062,-54419
4063,-71060
4064,-35884
4065,-28872
4066,-44326
4067,-83019
4068,-57083
4069,-36891
4070,-63234
4071,-72816
4072,-54614
4073,-24217
4074,-37544
4075,-73331
4076,-72536
4077,-32080
4078,-53888
4079,-71335
4080,-74968
4081,-25022
4082,-31707
4083,-54492
4084,-85916
4085,-39535
4086,-42472
4087,-65111
4088,-83286
4089,-33588
4090,-25816
4091,-41460
4092,-76661
4093,-59517
4094,-33858
4095,-54892
4096,-77370
4097,-54406
4098,-23607
4099,-36371
4100,-66161
4101,-81109
4102,-34581
4103,-49256
4104,-64779
4105,-71147
4106,-27230
4107,-32786
4108,-52042
4109,-80932
4110,-38839
4111,-44329
4112,-62037
4113,-75790
4114,-39092
4115,-27517
4116,-43045
4117,-78258
4118,-51175
4119,-36008
4120,-59052
4121,-79663
4122,-55695
4123,-22454
4124,-35349
4125,-66074
4126,-70897
4127,-33562
4128,-51406
4129,-78506
4130,-76526
4131,-22923
4132,-31431
4133,-50210
4134,-80701
4135,-42037
4136,-40719
4137,-63681
4138,-80807
4139,-35798
4140,-27541
4141,-43727
4142,-77613
4143,-58060
4144,-36072
4145,-55153
4146,-71497
4147,-55102
4148,-26144
4149,-38616
4150,-70512
4151,-74017
4152,-33446
4153,-52519
4154,-64281
4155,-69443
4156,-27157
4157,-31746
4158,-54582
4159,-86086
4160,-37887
4161,-46799
4162,-67199
4163,-76961
4164,-35061
4165,-25976
4166,-42857
4167,-81447
4168,-52972
4169,-36383
4170,-61599
4171,-84714
4172,-51646
4173,-21132
4174,-36539
4175,-61181
4176,-75659
4177,-34871
4178,-48484
4179,-71709
4180,-76956
4181,-26707
4182,-31472
4183,-49897
4184,-85214
4185,-41419
4186,-40607
4187,-58592
4188,-75639
4189,-37642
4190,-27487
4191,-43410
4192,-83532
4193,-57143
4194,-35974
4195,-60890
4196,-68727
4197,-55364
4198,-24404
4199,-38383
4200,-72284
4201,-72106
4202,-32890
4203,-56501
4204,-69991
4205,-77164
4206,-25307
4207,-29399
4208,-50605
4209,-81152
4210,-37374
4211,-44108
4212,-67474
4213,-85469
4214,-32879
4215,-23516
4216,-40028
4217,-77076
4218,-54464
4219,-33907
4220,-57666
4221,-82446
4222,-61397
4223,-23168
4224,-36176
4225,-62074
4226,-75824
4227,-33672
4228,-49230
4229,-63310
4230,-71009
4231,-28320
4232,-33190
4233,-52907
4234,-83797
4235,-39711
4236,-44553
4237,-62858
4238,-76879
4239,-37820
4240,-27869
4241,-44580
4242,-84373
4243,-53378
4244,-37479
4245,-61761
4246,-75922
4247,-54642
4248,-23736
4249,-36456
4250,-70274
4251,-69417
4252,-33632
4253,-54736
4254,-79810
4255,-75932
4256,-23274
4257,-31007
4258,-50273
4259,-79947
4260,-40950
4261,-40819
4262,-63607
4263,-85634
4264,-39980
4265,-26962
4266,-42476
4267,-79504
4268,-57115
4269,-32061
4270,-50015
4271,-67237
4272,-55285
4273,-21289
4274,-32031
4275,-60974
4276,-67228
4277,-26548
4278,-45283
4279,-59820
4280,-63788
4281,-23935
4282,-31091
4283,-55849
4284,-89274
4285,-42753
4286,-51151
4287,-72964
4288,-88812
4289,-42198
4290,-29787
4291,-45879
4292,-85784
4293,-53391
4294,-36191
4295,-57520
4296,-84753
4297,-54854
4298,-20961
4299,-35652
4300,-62367
4301,-70353
4302,-33144
4303,-48129
4304,-73677
4305,-75499
4306,-25203
4307,-31497
4308,-50390
4309,-81846
4310,-41499
4311,-40651
4312,-56688
4313,-74555
4314,-38022
4315,-28277
4316,-43699
4317,-77209
4318,-53989
4319,-35718
4320,-59247
4321,-72626
4322,-55786
4323,-24675
4324,-36897
4325,-69714
4326,-70524
4327,-32156
4328,-54702
4329,-69711
4330,-68642
4331,-25187
4332,-30599
4333,-51711
4334,-80410
4335,-37704
4336,-43925
4337,-67088
4338,-83642
4339,-33526
4340,-24640
4341,-39756
4342,-73896
4343,-54953
4344,-33384
4345,-56293
4346,-81476
4347,-55247
4348,-21433
4349,-35068
4350,-61630
4351,-74976
4352,-33724
4353,-48357
4354,-64553
4355,-71461
4356,-27602
4357,-31957
4358,-50863
4359,-85284
4360,-39340
4361,-40529
4362,-60385
4363,-74860
4364,-37959
4365,-26645
4366,-43145
4367,-79643
4368,-52277
4369,-34450
4370,-60328
4371,-71507
4372,-52036
4373,-22383
4374,-35336
4375,-65575
4376,-68208
4377,-31501
4378,-53580
4379,-71991
4380,-71683
4381,-21598
4382,-28306
4383,-49654
4384,-79968
4385,-37022
4386,-38631
4387,-65836
4388,-85464
4389,-32743
4390,-23367
4391,-37805
4392,-68732
4393,-51781
4394,-30782
4395,-51976
4396,-73276
4397,-55739
4398,-22756
4399,-35177
4400,-63905
4401,-79019
4402,-32616
4403,-50601
4404,-62889
4405,-65734
4406,-26256
4407,-31977
4408,-53437
4409,-88797
4410,-39516
4411,-45455
4412,-64771
4413,-77610
4414,-39054
4415,-26386
4416,-42947
4417,-86280
4418,-55479
4419,-38305
4420,-63749
4421,-81734
4422,-56035
4423,-22636
4424,-36579
4425,-63977
4426,-70608
4427,-33751
4428,-53201
4429,-77894
4430,-75142
4431,-22909
4432,-31844
4433,-50682
4434,-86997
4435,-46347
4436,-41487
4437,-63472
4438,-87034
4439,-41927
4440,-28131
4441,-43585
4442,-79292
4443,-54687
4444,-33690
4445,-53055
4446,-71747
4447,-56511
4448,-25212
4449,-37591
4450,-69961
4451,-74836
4452,-33236
4453,-55252
4454,-71534
4455,-72167
4456,-26532
4457,-31819
4458,-54480
4459,-87249
4460,-38982
4461,-46272
4462,-67889
4463,-82417
4464,-37134
4465,-26555
4466,-42521
4467,-82403
4468,-58066
4469,-36976
4470,-62702
4471,-89132
4472,-59147
4473,-22427
4474,-37074
4475,-62628
4476,-76372
4477,-33437
4478,-48543
4479,-66123
4480,-74509
4481,-28653
4482,-32081
4483,-51892
4484,-86304
4485,-42059
4486,-41639
4487,-61112
4488,-73837
4489,-36470
4490,-28419
4491,-45771
4492,-82425
4493,-53595
4494,-37282
4495,-66255
4496,-77836
4497,-56408
4498,-24766
4499,-37719
4500,-71034
4501,-75083
4502,-34346
4503,-52931
4504,-74319
4505,-75669
4506,-24766
4507,-30949
4508,-51190
4509,-82575
4510,-41286
4511,-43704
4512,-71692
4513,-89362
4514,-34399
4515,-25486
4516,-41652
4517,-73214
4518,-57789
4519,-34606
4520,-56664
4521,-75612
4522,-58231
4523,-24907
4524,-37334
4525,-63711
4526,-69844
4527,-32127
4528,-48212
4529,-63491
4530,-70086
4531,-27386
4532,-32377
4533,-51998
4534,-80683
4535,-38407
4536,-46532
4537,-66301
4538,-74752
4539,-36931
4540,-27136
4541,-43477
4542,-82291
4543,-53611
4544,-36824
4545,-63848
4546,-80104
4547,-56083
4548,-22052
4549,-34573
4550,-65295
4551,-74489
4552,-33977
4553,-50207
4554,-73232
4555,-75219
4556,-24136
4557,-31382
4558,-47315
4559,-82565
4560,-45158
4561,-39806
4562,-59531
4563,-81023
4564,-39541
4565,-27572
4566,-42860
4567,-81987
4568,-59437
4569,-34291
4570,-52923
4571,-66539
4572,-54015
4573,-25140
4574,-37769
4575,-68565
4576,-71083
4577,-33461
4578,-56375
4579,-67244
4580,-70148
4581,-28120
4582,-32445
4583,-54101
4584,-84156
4585,-37791
4586,-45314
4587,-63054
4588,-80158
4589,-38171
4590,-26223
4591,-42466
4592,-81191
4593,-53516
4594,-34924
4595,-56874
4596,-82497
4597,-53377
4598,-20355
4599,-36011
4600,-61929
4601,-79595
4602,-34895
4603,-46789
4604,-65637
4605,-72714
4606,-27999
4607,-32319
4608,-52569
4609,-85227
4610,-39912
4611,-42590
4612,-59277
4613,-74071
4614,-39001
4615,-28268
4616,-44705
4617,-85055
4618,-58069
4619,-36527
4620,-60404
4621,-75824
4622,-60436
4623,-24982
4624,-37377
4625,-69833
4626,-73361
4627,-33574
4628,-51503
4629,-70197
4630,-73598
4631,-25165
4632,-30641
4633,-52641
4634,-83980
4635,-40038
4636,-40888
4637,-67985
4638,-85902
4639,-35409
4640,-25385
4641,-41388
4642,-75778
4643,-60084
4644,-34732
4645,-54473
4646,-76000
4647,-62037
4648,-25756
4649,-38473
4650,-67463
4651,-77354
4652,-32683
4653,-47080
4654,-61045
4655,-68176
4656,-24740
4657,-27577
4658,-47349
4659,-80443
4660,-33187
4661,-36827
4662,-58657
4663,-73849
4664,-35319
4665,-24076
4666,-41904
4667,-84424
4668,-55091
4669,-43190
4670,-72664
4671,-84106
4672,-61421
4673,-26495
4674,-39711
4675,-69301
4676,-73579
4677,-34464
4678,-52897
4679,-77764
4680,-75376
4681,-22923
4682,-30774
4683,-49201
4684,-84109
4685,-43061
4686,-38651
4687,-62337
4688,-82519
4689,-37066
4690,-26401
4691,-42934
4692,-78490
4693,-56824
4694,-34485
4695,-55591
4696,-70840
4697,-55509
4698,-25463
4699,-37578
4700,-67504
4701,-78326
4702,-33821
4703,-51117
4704,-63971
4705,-69739
4706,-27434
4707,-32494
4708,-55226
4709,-92687
4710,-40046
4711,-44266
4712,-62010
4713,-79741
4714,-38344
4715,-24961
4716,-40978
4717,-82416
4718,-54373
4719,-36349
4720,-62822
4721,-86694
4722,-56411
4723,-21133
4724,-35984
4725,-64685
4726,-80431
4727,-34505
4728,-47948
4729,-72986
4730,-78774
4731,-27243
4732,-31476
4733,-49254
4734,-83079
4735,-42437
4736,-42546
4737,-58673
4738,-77921
4739,-43084
4740,-27767
4741,-42499
4742,-79546
4743,-58189
4744,-33836
4745,-58293
4746,-73962
4747,-57604
4748,-23798
4749,-37022
4750,-67769
4751,-72524
4752,-31852
4753,-53366
4754,-71848
4755,-72603
4756,-23965
4757,-28938
4758,-49624
4759,-79242
4760,-37691
4761,-40541
4762,-67608
4763,-86676
4764,-31940
4765,-22523
4766,-37612
4767,-72892
4768,-60087
4769,-32969
4770,-55377
4771,-77009
4772,-53971
4773,-20329
4774,-33802
4775,-60137
4776,-76497
4777,-31780
4778,-44300
4779,-62214
4780,-71129
4781,-25826
4782,-30633
4783,-51145
4784,-88761
4785,-41717
4786,-42379
4787,-62135
4788,-75261
4789,-37789
4790,-26939
4791,-44098
4792,-83964
4793,-54642
4794,-36958
4795,-62299
4796,-70322
4797,-51202
4798,-23101
4799,-36002
4800,-64992
4801,-71250
4802,-33742
4803,-50811
4804,-75786
4805,-74866
4806,-22721
4807,-30441
4808,-48815
4809,-83838
4810,-44244
4811,-40367
4812,-64972
4813,-89108
4814,-40992
4815,-27031
4816,-43484
4817,-80712
4818,-60984
4819,-34066
4820,-51493
4821,-71064
4822,-60094
4823,-26452
4824,-39087
4825,-69736
4826,-75666
4827,-33000
4828,-51099
4829,-65257
4830,-67806
4831,-25964
4832,-31907
4833,-52866
4834,-83982
4835,-38274
4836,-44192
4837,-63999
4838,-82922
4839,-39560
4840,-26079
4841,-41262
4842,-76872
4843,-52650
4844,-33952
4845,-56252
4846,-84777
4847,-57462
4848,-21428
4849,-36792
4850,-62005
4851,-73491
4852,-34011
4853,-46882
4854,-70283
4855,-75451
4856,-26359
4857,-31945
4858,-49761
4859,-83738
4860,-43062
4861,-41084
4862,-58187
4863,-79967
4864,-43177
4865,-28538
4866,-43842
4867,-83590
4868,-60628
4869,-36010
4870,-60495
4871,-72025
4872,-58509
4873,-25476
4874,-38141
4875,-73172
4876,-77999
4877,-32976
4878,-54106
4879,-65723
4880,-68548
4881,-24900
4882,-30170
4883,-52655
4884,-86032
4885,-39115
4886,-42411
4887,-63893
4888,-87471
4889,-36349
4890,-24955
4891,-41459
4892,-80697
4893,-60640
4894,-34858
4895,-59115
4896,-79722
4897,-55726
4898,-22581
4899,-35944
4900,-61415
4901,-73878
4902,-33203
4903,-50456
4904,-66689
4905,-75563
4906,-28671
4907,-31893
4908,-50877
4909,-80889
4910,-39096
4911,-41972
4912,-62158
4913,-77059
4914,-39637
4915,-27772
4916,-43566
4917,-85781
4918,-57391
4919,-36185
4920,-60451
4921,-76480
4922,-55694
4923,-22838
4924,-35473
4925,-64966
4926,-70620
4927,-33412
4928,-56984
4929,-78321
4930,-77481
4931,-23357
4932,-29824
4933,-48748
4934,-82416
4935,-42406
4936,-41751
4937,-67862
4938,-83934
4939,-36845
4940,-25540
4941,-40497
4942,-71833
4943,-56061
4944,-32705
4945,-52507
4946,-77085
4947,-66162
4948,-26104
4949,-36940
4950,-64813
4951,-72104
4952,-32567
4953,-52104
4954,-67820
4955,-72631
4956,-29129
4957,-33252
4958,-53499
4959,-78654
4960,-37152
4961,-44165
4962,-68074
4963,-76916
4964,-38134
4965,-26213
4966,-41754
4967,-80967
4968,-54701
4969,-35809
4970,-58457
4971,-79227
4972,-55149
4973,-21064
4974,-34291
4975,-60451
4976,-73181
4977,-33688
4978,-51502
4979,-80014
4980,-78554
4981,-24448
4982,-29324
4983,-47113
4984,-78557
4985,-40876
4986,-38774
4987,-59534
4988,-76652
4989,-36677
4990,-26410
4991,-41416
4992,-76789
4993,-57011
4994,-34439
4995,-58487
4996,-70062
4997,-55492
4998,-25459
4999,-37552
5000,-70022
5001,-75811
5002,-33926
5003,-57692
5004,-73395
5005,-75228
5006,-28239
5007,-32346
5008,-57004
5009,-94709
5010,-40748
5011,-46225
5012,-68386
5013,-81402
5014,-36141
5015,-25730
5016,-41989
5017,-79957
5018,-55851
5019,-36848
5020,-64694
5021,-86216
5022,-58570
5023,-22490
5024,-37056
5025,-62269
5026,-73152
5027,-34604
5028,-50020
5029,-67472
5030,-70759
5031,-27616
5032,-32729
5033,-49194
5034,-81043
5035,-41613
5036,-42276
5037,-61567
5038,-77067
5039,-39246
5040,-27222
5041,-42465
5042,-79214
5043,-55252
5044,-34086
5045,-61987
5046,-75177
5047,-57062
5048,-19368
5049,-29172
5050,-58307
5051,-65300
5052,-26832
5053,-50350
5054,-67551
5055,-71630
5056,-23819
5057,-31193
5058,-54076
5059,-91156
5060,-48521
5061,-50757
5062,-75494
5063,-91377
5064,-38635
5065,-28239
5066,-43381
5067,-78146
5068,-61447
5069,-33287
5070,-56490
5071,-75119
5072,-59691
5073,-24243
5074,-37311
5075,-65268
5076,-79396
5077,-33358
5078,-49417
5079,-63057
5080,-67498
5081,-27731
5082,-33255
5083,-53781
5084,-86644
5085,-41085
5086,-45757
5087,-64571
5088,-75841
5089,-39419
5090,-26889
5091,-43184
5092,-86671
5093,-55692
5094,-37326
5095,-61079
5096,-80363
5097,-57204
5098,-21937
5099,-35172
5100,-66876
5101,-74749
5102,-33914
5103,-52617
5104,-77671
5105,-76067
5106,-24219
5107,-30808
5108,-48771
5109,-85939
5110,-45660
5111,-39736
5112,-60494
5113,-77951
5114,-38460
5115,-27139
5116,-42318
5117,-77274
5118,-60014
5119,-34198
5120,-56676
5121,-73819
5122,-60641
5123,-25844
5124,-37620
5125,-66489
5126,-69346
5127,-32472
5128,-55151
5129,-70221
5130,-67512
5131,-25585
5132,-30441
5133,-53233
5134,-84533
5135,-37279
5136,-45881
5137,-68212
5138,-78950
5139,-33553
5140,-23501
5141,-39042
5142,-71695
5143,-55231
5144,-33251
5145,-59791
5146,-80951
5147,-55106
5148,-20631
5149,-35774
5150,-61009
5151,-76836
5152,-32920
5153,-46761
5154,-62571
5155,-68607
5156,-25501
5157,-29680
5158,-48034
5159,-88027
5160,-40708
5161,-39217
5162,-61400
5163,-75519
5164,-36971
5165,-24792
5166,-40323
5167,-81814
5168,-53412
5169,-33604
5170,-61867
5171,-74343
5172,-56144
5173,-21871
5174,-34026
5175,-64606
5176,-72606
5177,-32799
5178,-51213
5179,-74661
5180,-79062
5181,-23498
5182,-29767
5183,-46702
5184,-78372
5185,-41700
5186,-38586
5187,-61078
5188,-81490
5189,-39421
5190,-26597
5191,-41332
5192,-75632
5193,-62754
5194,-35376
5195,-54627
5196,-73076
5197,-62271
5198,-25751
5199,-37892
5200,-67076
5201,-79017
5202,-35172
5203,-51361
5204,-65427
5205,-71598
5206,-28303
5207,-33077
5208,-54122
5209,-87639
5210,-40361
5211,-45166
5212,-63566
5213,-80190
5214,-38692
5215,-26264
5216,-41964
5217,-83889
5218,-58724
5219,-36491
5220,-58132
5221,-85222
5222,-56377
5223,-21017
5224,-34759
5225,-58707
5226,-76580
5227,-34967
5228,-44745
5229,-64355
5230,-74150
5231,-27084
5232,-31552
5233,-49601
5234,-83911
5235,-43037
5236,-39932
5237,-56758
5238,-79715
5239,-42141
5240,-28023
5241,-43657
5242,-83275
5243,-60721
5244,-34352
5245,-55919
5246,-71460
5247,-58862
5248,-23839
5249,-35635
5250,-68192
5251,-71594
5252,-32975
5253,-53855
5254,-69623
5255,-78002
5256,-26136
5257,-30329
5258,-49847
5259,-79017
5260,-39585
5261,-43398
5262,-71072
5263,-88556
5264,-36352
5265,-25470
5266,-41249
5267,-76811
5268,-62646
5269,-34167
5270,-53696
5271,-74447
5272,-61235
5273,-24255
5274,-37057
5275,-63454
5276,-74980
5277,-32616
5278,-47706
5279,-60251
5280,-66685
5281,-27948
5282,-32894
5283,-54279
5284,-87337
5285,-39436
5286,-43507
5287,-63400
5288,-75235
5289,-39016
5290,-26182
5291,-41614
5292,-83062
5293,-55811
5294,-36115
5295,-59591
5296,-82461
5297,-62364
5298,-21756
5299,-35242
5300,-61841
5301,-76932
5302,-35492
5303,-50946
5304,-78411
5305,-77818
5306,-24732
5307,-30702
5308,-48606
5309,-84062
5310,-44159
5311,-38650
5312,-57234
5313,-77598
5314,-39347
5315,-27906
5316,-42711
5317,-80087
5318,-60283
5319,-35546
5320,-62832
5321,-76675
5322,-58479
5323,-24772
5324,-37201
5325,-69806
5326,-77736
5327,-33524
5328,-56047
5329,-71354
5330,-76408
5331,-27224
5332,-31164
5333,-53301
5334,-85569
5335,-39351
5336,-47608
5337,-69468
5338,-87693
5339,-35916
5340,-24871
5341,-41003
5342,-79672
5343,-60477
5344,-34751
5345,-59752
5346,-81226
5347,-56962
5348,-23402
5349,-37559
5350,-62487
5351,-77347
5352,-34498
5353,-48139
5354,-63287
5355,-71616
5356,-28652
5357,-32942
5358,-51890
5359,-88522
5360,-43722
5361,-42620
5362,-63306
5363,-78459
5364,-40342
5365,-27381
5366,-42617
5367,-81302
5368,-57542
5369,-36199
5370,-61854
5371,-73968
5372,-57406
5373,-23147
5374,-35034
5375,-66324
5376,-71151
5377,-33349
5378,-53621
5379,-75968
5380,-76261
5381,-23490
5382,-30209
5383,-49686
5384,-86167
5385,-46149
5386,-42620
5387,-67703
5388,-83041
5389,-36278
5390,-26304
5391,-42001
5392,-77810
5393,-64168
5394,-33913
5395,-52611
5396,-69106
5397,-58509
5398,-24827
5399,-37010
5400,-66566
5401,-76050
5402,-33147
5403,-53268
5404,-66064
5405,-69871
5406,-27534
5407,-31552
5408,-53923
5409,-86208
5410,-39319
5411,-45956
5412,-67589
5413,-79189
5414,-38858
5415,-25438
5416,-40941
5417,-82290
5418,-56727
5419,-37258
5420,-66026
5421,-86598
5422,-56096
5423,-21907
5424,-36672
5425,-66357
5426,-79627
5427,-34942
5428,-48044
5429,-67914
5430,-75946
5431,-27681
5432,-31757
5433,-50272
5434,-83514
5435,-42064
5436,-38474
5437,-54471
5438,-74399
5439,-41838
5440,-28398
5441,-43626
5442,-76798
5443,-55275
5444,-34811
5445,-58488
5446,-71752
5447,-59863
5448,-25059
5449,-37657
5450,-68221
5451,-74176
5452,-32895
5453,-51666
5454,-68912
5455,-74790
5456,-26157
5457,-30837
5458,-50805
5459,-83101
5460,-39106
5461,-39066
5462,-61207
5463,-79928
5464,-31854
5465,-19606
5466,-33357
5467,-67382
5468,-54069
5469,-27195
5470,-49015
5471,-72954
5472,-56121
5473,-21696
5474,-36988
5475,-64244
5476,-84182
5477,-40607
5478,-52773
5479,-68957
5480,-76776
5481,-31200
5482,-35196
5483,-52984
5484,-83413
5485,-39397
5486,-41411
5487,-58962
5488,-74146
5489,-41413
5490,-26417
5491,-42011
5492,-80341
5493,-55356
5494,-36509
5495,-58949
5496,-76860
5497,-59705
5498,-22603
5499,-35581
5500,-63601
5501,-73225
5502,-34393
5503,-52626
5504,-76199
5505,-77209
5506,-24329
5507,-30264
5508,-48121
5509,-84340
5510,-45094
5511,-39481
5512,-58843
5513,-80724
5514,-41951
5515,-27247
5516,-41737
5517,-77816
5518,-59868
5519,-33839
5520,-53592
5521,-70111
5522,-63644
5523,-26607
5524,-37230
5525,-68998
5526,-80580
5527,-32616
5528,-52698
5529,-71423
5530,-77759
5531,-28423
5532,-31047
5533,-53044
5534,-89132
5535,-39927
5536,-44496
5537,-65827
5538,-80411
5539,-38116
5540,-25280
5541,-40659
5542,-76516
5543,-58086
5544,-34797
5545,-57377
5546,-84529
5547,-60986
5548,-22331
5549,-34693
5550,-59676
5551,-77062
5552,-33270
5553,-45606
5554,-62004
5555,-69706
5556,-27636
5557,-31186
5558,-48627
5559,-83659
5560,-41261
5561,-39514
5562,-60005
5563,-77258
5564,-39449
5565,-25487
5566,-41152
5567,-79022
5568,-55646
5569,-33527
5570,-61601
5571,-72569
5572,-57714
5573,-22110
5574,-33237
5575,-67134
5576,-74178
5577,-31434
5578,-51967
5579,-71732
5580,-78644
5581,-23681
5582,-28047
5583,-47939
5584,-86504
5585,-42931
5586,-38755
5587,-65030
5588,-82321
5589,-36639
5590,-23529
5591,-38937
5592,-76041
5593,-61612
5594,-32701
5595,-53619
5596,-72643
5597,-61027
5598,-25352
5599,-37446
5600,-64693
5601,-74025
5602,-33249
5603,-52229
5604,-67809
5605,-71954
5606,-29087
5607,-32967
5608,-53723
5609,-86304
5610,-39748
5611,-44801
5612,-64269
5613,-79274
5614,-39804
5615,-25842
5616,-41279
5617,-79579
5618,-57652
5619,-36377
5620,-60102
5621,-84000
5622,-57069
5623,-22946
5624,-37264
5625,-63809
5626,-77367
5627,-35229
5628,-48763
5629,-70908
5630,-76557
5631,-27378
5632,-32642
5633,-50503
5634,-84298
5635,-44547
5636,-40537
5637,-59353
5638,-80413
5639,-44557
5640,-28604
5641,-44379
5642,-81557
5643,-58839
5644,-36324
5645,-62282
5646,-76117
5647,-61429
5648,-24862
5649,-36650
5650,-68150
5651,-74288
5652,-34643
5653,-56485
5654,-73952
5655,-79105
5656,-26184
5657,-30705
5658,-51103
5659,-86417
5660,-43974
5661,-41757
5662,-67444
5663,-82211
5664,-37178
5665,-24994
5666,-41049
5667,-79646
5668,-64975
5669,-34568
5670,-54089
5671,-73631
5672,-59706
5673,-24634
5674,-37566
5675,-65896
5676,-80095
5677,-34218
5678,-47795
5679,-61761
5680,-67257
5681,-27679
5682,-32442
5683,-54615
5684,-87921
5685,-40837
5686,-43984
5687,-64964
5688,-82772
5689,-40843
5690,-26046
5691,-41467
5692,-75647
5693,-54236
5694,-35877
5695,-60741
5696,-84160
5697,-59042
5698,-21864
5699,-36116
5700,-59604
5701,-79717
5702,-36792
5703,-49098
5704,-68752
5705,-75513
5706,-26670
5707,-32175
5708,-50768
5709,-92461
5710,-46669
5711,-38530
5712,-54099
5713,-73102
5714,-40195
5715,-27584
5716,-42841
5717,-83098
5718,-60178
5719,-36390
5720,-62279
5721,-74498
5722,-61842
5723,-24516
5724,-36130
5725,-66912
5726,-72628
5727,-32694
5728,-52444
5729,-69336
5730,-75079
5731,-26632
5732,-31068
5733,-50189
5734,-82103
5735,-42849
5736,-41112
5737,-65978
5738,-89694
5739,-39659
5740,-25599
5741,-41477
5742,-76778
5743,-64231
5744,-34397
5745,-54344
5746,-77074
5747,-61969
5748,-25402
5749,-37889
5750,-65156
5751,-78891
5752,-33972
5753,-50541
5754,-66437
5755,-72249
5756,-28949
5757,-32773
5758,-54304
5759,-87044
5760,-41074
5761,-43827
5762,-65763
5763,-79172
5764,-43341
5765,-26733
5766,-42371
5767,-81206
5768,-56256
5769,-37474
5770,-60717
5771,-79929
5772,-59647
5773,-21932
5774,-35996
5775,-58442
5776,-72653
5777,-35099
5778,-50173
5779,-71375
5780,-75924
5781,-27074
5782,-31368
5783,-49949
5784,-80079
5785,-40684
5786,-40646
5787,-61148
5788,-76055
5789,-41298
5790,-27837
5791,-45093
5792,-85414
5793,-63007
5794,-35978
5795,-61284
5796,-71935
5797,-60286
5798,-25151
5799,-37312
5800,-70168
5801,-77749
5802,-34168
5803,-56911
5804,-70157
5805,-73819
5806,-26609
5807,-30687
5808,-51155
5809,-85269
5810,-41540
5811,-43857
5812,-68395
5813,-85892
5814,-37280
5815,-25486
5816,-41263
5817,-77770
5818,-61677
5819,-34636
5820,-57928
5821,-76795
5822,-57326
5823,-24119
5824,-37422
5825,-63571
5826,-81992
5827,-35334
5828,-49883
5829,-63139
5830,-74559
5831,-29904
5832,-32101
5833,-50355
5834,-82762
5835,-41414
5836,-43088
5837,-62378
5838,-78292
5839,-43427
5840,-27177
5841,-42892
5842,-78416
5843,-54246
5844,-36806
5845,-64279
5846,-78941
5847,-59227
5848,-23065
5849,-35658
5850,-63492
5851,-74666
5852,-35576
5853,-55800
5854,-78014
5855,-81845
5856,-26485
5857,-31926
5858,-50216
5859,-90359
5860,-48976
5861,-40672
5862,-62304
5863,-84486
5864,-42013
5865,-27371
5866,-43312
5867,-81713
5868,-62927
5869,-34477
5870,-56623
5871,-70891
5872,-56521
5873,-25900
5874,-37646
5875,-66577
5876,-76067
5877,-33664
5878,-54628
5879,-72042
5880,-75323
5881,-28514
5882,-33034
5883,-54054
5884,-85216
5885,-40749
5886,-44042
5887,-67882
5888,-87799
5889,-40526
5890,-25666
5891,-41584
5892,-76417
5893,-63715
5894,-35849
5895,-57951
5896,-80813
5897,-59747
5898,-22161
5899,-34944
5900,-60361
5901,-78789
5902,-31223
5903,-41202
5904,-56750
5905,-68928
5906,-24262
5907,-25294
5908,-42611
5909,-82857
5910,-37533
5911,-35383
5912,-56989
5913,-70115
5914,-40296
5915,-29340
5916,-48226
5917,-87949
5918,-63534
5919,-41327
5920,-67322
5921,-82721
5922,-66219
5923,-25862
5924,-36797
5925,-68504
5926,-77338
5927,-33891
5928,-48914
5929,-73387
5930,-75918
5931,-23387
5932,-30417
5933,-49929
5934,-89569
5935,-47951
5936,-39250
5937,-61120
5938,-82044
5939,-39647
5940,-25827
5941,-40818
5942,-76106
5943,-64154
5944,-33994
5945,-51741
5946,-67315
5947,-60927
5948,-25541
5949,-36974
5950,-66328
5951,-75814
5952,-33192
5953,-51153
5954,-61938
5955,-69621
5956,-29259
5957,-32161
5958,-52622
5959,-84789
5960,-39497
5961,-42522
5962,-61441
5963,-82151
5964,-41632
5965,-24852
5966,-39690
5967,-76669
5968,-55844
5969,-35491
5970,-58817
5971,-82785
5972,-58244
5973,-21028
5974,-34734
5975,-57810
5976,-73832
5977,-34279
5978,-46827
5979,-71910
5980,-78042
5981,-26736
5982,-30702
5983,-47742
5984,-86432
5985,-45401
5986,-38049
5987,-55934
5988,-76249
5989,-42640
5990,-26865
5991,-41673
5992,-81843
5993,-60257
5994,-33829
5995,-59957
5996,-70841
5997,-55619
5998,-22867
5999,-34152
6000,-66162
6001,-75217
6002,-31709
6003,-53678
6004,-69768
6005,-71864
6006,-25101
6007,-28337
6008,-47481
6009,-80666
6010,-39447
6011,-42396
6012,-66931
6013,-85637
6014,-37341
6015,-21777
6016,-36163
6017,-67446
6018,-56182
6019,-32470
6020,-54726
6021,-75395
6022,-55957
6023,-20764
6024,-34133
6025,-59596
6026,-79120
6027,-33149
6028,-43386
6029,-60304
6030,-73889
6031,-30142
6032,-30756
6033,-49982
6034,-87948
6035,-43701
6036,-41299
6037,-61975
6038,-74557
6039,-40927
6040,-27877
6041,-44027
6042,-83253
6043,-58373
6044,-36315
6045,-64486
6046,-74645
6047,-58570
6048,-23734
6049,-35806
6050,-68751
6051,-78278
6052,-34385
6053,-52815
6054,-75451
6055,-78031
6056,-25864
6057,-30999
6058,-49447
6059,-80666
6060,-43509
6061,-41392
6062,-70648
6063,-85391
6064,-37951
6065,-25936
6066,-42293
6067,-77184
6068,-65066
6069,-35156
6070,-55353
6071,-71688
6072,-60732
6073,-26411
6074,-37957
6075,-66454
6076,-82767
6077,-34953
6078,-50651
6079,-64840
6080,-70132
6081,-28979
6082,-32674
6083,-53158
6084,-89009
6085,-40954
6086,-47070
6087,-67771
6088,-77958
6089,-41819
6090,-26264
6091,-42297
6092,-80406
6093,-55532
6094,-35825
6095,-62892
6096,-81762
6097,-59081
6098,-22694
6099,-35882
6100,-64807
6101,-79357
6102,-35597
6103,-49942
6104,-75484
6105,-79974
6106,-27762
6107,-31870
6108,-49370
6109,-83872
6110,-44484
6111,-39818
6112,-59479
6113,-77739
6114,-42290
6115,-27714
6116,-42706
6117,-80267
6118,-62137
6119,-34910
6120,-58043
6121,-68874
6122,-59339
6123,-25970
6124,-38002
6125,-67902
6126,-77511
6127,-33648
6128,-55468
6129,-72177
6130,-78029
6131,-28435
6132,-30864
6133,-52468
6134,-88247
6135,-41118
6136,-44497
6137,-67357
6138,-83749
6139,-36140
6140,-24805
6141,-40622
6142,-77332
6143,-62268
6144,-34883
6145,-58116
6146,-82042
6147,-60684
6148,-22955
6149,-36044
6150,-60459
6151,-80264
6152,-34947
6153,-47002
6154,-65335
6155,-77861
6156,-30115
6157,-33184
6158,-52091
6159,-90861
6160,-46578
6161,-41834
6162,-59976
6163,-74471
6164,-42349
6165,-27072
6166,-42596
6167,-81311
6168,-59692
6169,-34925
6170,-60421
6171,-75336
6172,-60169
6173,-23486
6174,-34387
6175,-66872
6176,-74809
6177,-33676
6178,-54740
6179,-74561
6180,-76334
6181,-25461
6182,-29809
6183,-47133
6184,-80524
6185,-45334
6186,-41291
6187,-65681
6188,-90151
6189,-41284
6190,-26321
6191,-41997
6192,-75154
6193,-63768
6194,-34370
6195,-52377
6196,-73864
6197,-61278
6198,-24912
6199,-37143
6200,-63144
6201,-82201
6202,-35281
6203,-48657
6204,-61909
6205,-69506
6206,-28601
6207,-32170
6208,-52844
6209,-85321
6210,-40254
6211,-43896
6212,-68084
6213,-84379
6214,-43022
6215,-26502
6216,-41432
6217,-79411
6218,-57426
6219,-36514
6220,-59666
6221,-75904
6222,-59241
6223,-22419
6224,-34507
6225,-59815
6226,-73349
6227,-34631
6228,-47106
6229,-73442
6230,-75034
6231,-25304
6232,-30646
6233,-46290
6234,-78317
6235,-45401
6236,-39361
6237,-61222
6238,-83502
6239,-44141
6240,-27519
6241,-42729
6242,-77431
6243,-64781
6244,-34960
6245,-53493
6246,-68785
6247,-61548
6248,-25951
6249,-38084
6250,-67017
6251,-78855
6252,-34200
6253,-51824
6254,-66331
6255,-73319
6256,-29174
6257,-31372
6258,-51017
6259,-80866
6260,-39184
6261,-44453
6262,-66616
6263,-81591
6264,-39196
6265,-24771
6266,-39917
6267,-75076
6268,-57491
6269,-34481
6270,-58994
6271,-84786
6272,-58610
6273,-21129
6274,-35516
6275,-57557
6276,-76421
6277,-35166
6278,-46552
6279,-69172
6280,-80701
6281,-28697
6282,-30587
6283,-48289
6284,-85204
6285,-45010
6286,-39609
6287,-59164
6288,-80578
6289,-45837
6290,-28457
6291,-44111
6292,-81376
6293,-60076
6294,-35911
6295,-63034
6296,-73476
6297,-57336
6298,-24426
6299,-37574
6300,-68704
6301,-77096
6302,-33955
6303,-56391
6304,-72587
6305,-78215
6306,-27129
6307,-30729
6308,-50395
6309,-82986
6310,-42367
6311,-43818
6312,-68056
6313,-84655
6314,-38314
6315,-25026
6316,-41054
6317,-77045
6318,-64381
6319,-34286
6320,-56012
6321,-74940
6322,-61434
6323,-24679
6324,-35997
6325,-62127
6326,-79827
6327,-34223
6328,-48810
6329,-62335
6330,-70661
6331,-30316
6332,-30455
6333,-48727
6334,-85290
6335,-40064
6336,-39207
6337,-61836
6338,-76133
6339,-38173
6340,-20376
6341,-34637
6342,-75369
6343,-53628
6344,-31487
6345,-59531
6346,-76745
6347,-64079
6348,-27307
6349,-41559
6350,-68834
6351,-81259
6352,-41347
6353,-57931
6354,-81667
6355,-81150
6356,-25192
6357,-31356
6358,-48966
6359,-85149
6360,-49254
6361,-39625
6362,-60682
6363,-81537
6364,-40634
6365,-25516
6366,-41219
6367,-76812
6368,-64449
6369,-33789
6370,-55328
6371,-71266
6372,-62485
6373,-26436
6374,-38004
6375,-64321
6376,-79960
6377,-34681
6378,-52702
6379,-68191
6380,-78997
6381,-31191
6382,-30351
6383,-51882
6384,-89324
6385,-41527
6386,-43817
6387,-66641
6388,-81195
6389,-42346
6390,-25218
6391,-40987
6392,-79956
6393,-57577
6394,-35337
6395,-59167
6396,-85424
6397,-64341
6398,-22019
6399,-35721
6400,-59716
6401,-78500
6402,-35873
6403,-48850
6404,-69424
6405,-78089
6406,-28971
6407,-31706
6408,-47486
6409,-78804
6410,-43573
6411,-39229
6412,-58754
6413,-77971
6414,-44447
6415,-27213
6416,-41408
6417,-75609
6418,-60773
6419,-34002
6420,-59331
6421,-71729
6422,-57903
6423,-23633
6424,-36184
6425,-65427
6426,-74697
6427,-32596
6428,-52157
6429,-70465
6430,-77135
6431,-26636
6432,-28611
6433,-45766
6434,-77192
6435,-41199
6436,-40322
6437,-63954
6438,-84832
6439,-37987
6440,-23108
6441,-38649
6442,-71444
6443,-61578
6444,-31085
6445,-51730
6446,-76146
6447,-62703
6448,-22404
6449,-34917
6450,-60743
6451,-82920
6452,-33451
6453,-45476
6454,-61145
6455,-74136
6456,-30187
6457,-30822
6458,-50535
6459,-85393
6460,-39192
6461,-41472
6462,-62269
6463,-73684
6464,-43241
6465,-25439
6466,-41157
6467,-80457
6468,-59254
6469,-34445
6470,-60892
6471,-78491
6472,-63662
6473,-23516
6474,-35499
6475,-63226
6476,-75891
6477,-35049
6478,-55502
6479,-76114
6480,-79594
6481,-25622
6482,-31592
6483,-48845
6484,-85521
6485,-50656
6486,-41091
6487,-64792
6488,-87494
6489,-45027
6490,-28335
6491,-43776
6492,-79342
6493,-67596
6494,-35817
6495,-54601
6496,-69448
6497,-58623
6498,-25886
6499,-37595
6500,-64937
6501,-79096
6502,-35069
6503,-53979
6504,-66487
6505,-69458
6506,-28574
6507,-32234
6508,-52399
6509,-87462
6510,-42597
6511,-45579
6512,-67934
6513,-82769
6514,-44240
6515,-26182
6516,-40741
6517,-77971
6518,-61449
6519,-35850
6520,-58266
6521,-82597
6522,-61267
6523,-22353
6524,-35381
6525,-60042
6526,-76856
6527,-35301
6528,-48445
6529,-69873
6530,-79026
6531,-30612
6532,-31672
6533,-49584
6534,-87924
6535,-49229
6536,-39569
6537,-58100
6538,-76524
6539,-46416
6540,-27889
6541,-42822
6542,-76927
6543,-60719
6544,-34861
6545,-58595
6546,-69050
6547,-59932
6548,-24852
6549,-35867
6550,-63714
6551,-72386
6552,-33107
6553,-52470
6554,-70368
6555,-80269
6556,-29234
6557,-30427
6558,-48895
6559,-82037
6560,-44439
6561,-42069
6562,-68009
6563,-87552
6564,-39663
6565,-24331
6566,-39662
6567,-72850
6568,-66682
6569,-35386
6570,-57122
6571,-78493
6572,-62644
6573,-24656
6574,-37012
6575,-60602
6576,-81100
6577,-36217
6578,-47869
6579,-62768
6580,-77105
6581,-31468
6582,-32156
6583,-51458
6584,-86059
6585,-43321
6586,-42857
6587,-65233
6588,-79663
6589,-43173
6590,-25751
6591,-40529
6592,-80232
6593,-60590
6594,-36712
6595,-63365
6596,-77256
6597,-58171
6598,-22935
6599,-35319
6600,-64003
6601,-79150
6602,-35912
6603,-52339
6604,-75628
6605,-79351
6606,-26983
6607,-32457
6608,-49492
6609,-89316
6610,-51849
6611,-39264
6612,-58452
6613,-77286
6614,-42507
6615,-27021
6616,-41167
6617,-77734
6618,-63919
6619,-34126
6620,-55792
6621,-68307
6622,-60551
6623,-26306
6624,-37649
6625,-66336
6626,-78812
6627,-34709
6628,-52498
6629,-68627
6630,-73888
6631,-29279
6632,-30732
6633,-49525
6634,-81216
6635,-40534
6636,-44063
6637,-65116
6638,-84045
6639,-41669
6640,-24367
6641,-39123
6642,-75078
6643,-59943
6644,-35584
6645,-58897
6646,-82607
6647,-59892
6648,-21728
6649,-35328
6650,-57789
6651,-79876
6652,-36577
6653,-44357
6654,-63939
6655,-77229
6656,-29906
6657,-31664
6658,-49420
6659,-83819
6660,-45099
6661,-41053
6662,-59872
6663,-75502
6664,-44161
6665,-27197
6666,-42199
6667,-79261
6668,-61057
6669,-35407
6670,-61479
6671,-72592
6672,-63998
6673,-23858
6674,-35139
6675,-65766
6676,-79957
6677,-35331
6678,-52862
6679,-73218
6680,-84499
6681,-28831
6682,-30460
6683,-48201
6684,-84644
6685,-46932
6686,-40662
6687,-66907
6688,-83829
6689,-41775
6690,-26127
6691,-43146
6692,-77374
6693,-67575
6694,-34855
6695,-55063
6696,-68029
6697,-60493
6698,-25707
6699,-37496
6700,-64726
6701,-82084
6702,-34582
6703,-47434
6704,-64042
6705,-76868
6706,-31214
6707,-31862
6708,-51002
6709,-89787
6710,-44848
6711,-41846
6712,-64917
6713,-81154
6714,-44867
6715,-26345
6716,-41839
6717,-78629
6718,-58667
6719,-34687
6720,-58988
6721,-80972
6722,-61866
6723,-21863
6724,-34006
6725,-61672
6726,-78921
6727,-35532
6728,-46704
6729,-69751
6730,-81057
6731,-28949
6732,-30171
6733,-47864
6734,-85017
6735,-49554
6736,-37871
6737,-56553
6738,-80112
6739,-47741
6740,-27694
6741,-42246
6742,-77761
6743,-63761
6744,-34816
6745,-58329
6746,-72361
6747,-63032
6748,-25742
6749,-37023
6750,-65324
6751,-78772
6752,-34151
6753,-54306
6754,-72614
6755,-77267
6756,-28286
6757,-30258
6758,-49646
6759,-84900
6760,-43082
6761,-42579
6762,-66141
6763,-87266
6764,-42410
6765,-24086
6766,-39051
6767,-71934
6768,-59802
6769,-33842
6770,-56518
6771,-79936
6772,-62747
6773,-23202
6774,-35343
6775,-57186
6776,-78236
6777,-35634
6778,-46282
6779,-62239
6780,-76027
6781,-30376
6782,-28517
6783,-45446
6784,-84321
6785,-43349
6786,-34306
6787,-54821
6788,-71521
6789,-41089
6790,-22276
6791,-38137
6792,-80422
6793,-63746
6794,-36502
6795,-63942
6796,-78571
6797,-66993
6798,-28166
6799,-39885
6800,-66151
6801,-77087
6802,-36980
6803,-52323
6804,-73481
6805,-82944
6806,-25928
6807,-28701
6808,-47614
6809,-86028
6810,-49334
6811,-38534
6812,-62005
6813,-81380
6814,-42866
6815,-25600
6816,-41314
6817,-76404
6818,-69082
6819,-33426
6820,-50429
6821,-67707
6822,-61496
6823,-26144
6824,-37276
6825,-64806
6826,-84656
6827,-36111
6828,-52244
6829,-65588
6830,-75311
6831,-32407
6832,-31384
6833,-50291
6834,-83945
6835,-43634
6836,-43391
6837,-68066
6838,-83092
6839,-43712
6840,-25132
6841,-40252
6842,-71758
6843,-59285
6844,-36054
6845,-61917
6846,-83742
6847,-65606
6848,-22374
6849,-34761
6850,-58771
6851,-80490
6852,-36989
6853,-46321
6854,-70168
6855,-84414
6856,-31197
6857,-31156
6858,-47451
6859,-78201
6860,-42884
6861,-37044
6862,-56790
6863,-77822
6864,-43092
6865,-26883
6866,-40961
6867,-77356
6868,-63448
6869,-33521
6870,-59164
6871,-69667
6872,-60219
6873,-25232
6874,-36434
6875,-64684
6876,-78086
6877,-33537
6878,-48905
6879,-64851
6880,-77475
6881,-28026
6882,-28667
6883,-46652
6884,-80602
6885,-41995
6886,-38229
6887,-61372
6888,-87699
6889,-41134
6890,-21616
6891,-36999
6892,-68533
6893,-61477
6894,-31996
6895,-54509
6896,-76776
6897,-63286
6898,-22214
6899,-32785
6900,-57489
6901,-84007
6902,-34644
6903,-46963
6904,-59961
6905,-70258
6906,-30409
6907,-29818
6908,-47559
6909,-85487
6910,-43050
6911,-38631
6912,-57649
6913,-67270
6914,-41518
6915,-25719
6916,-40322
6917,-79423
6918,-61781
6919,-33904
6920,-57892
6921,-78483
6922,-67287
6923,-23079
6924,-33743
6925,-60801
6926,-77774
6927,-35470
6928,-50916
6929,-76386
6930,-85461
6931,-27126
6932,-28930
6933,-46168
6934,-80375
6935,-48211
6936,-38642
6937,-60573
6938,-82270
6939,-47660
6940,-26332
6941,-41353
6942,-71771
6943,-62246
6944,-34101
6945,-52509
6946,-73041
6947,-64589
6948,-27617
6949,-38338
6950,-65504
6951,-84038
6952,-36665
6953,-54017
6954,-70621
6955,-74795
6956,-30178
6957,-31057
6958,-50276
6959,-88322
6960,-45852
6961,-42997
6962,-65997
6963,-86171
6964,-44700
6965,-25452
6966,-41116
6967,-77185
6968,-67564
6969,-35132
6970,-54939
6971,-81200
6972,-66446
6973,-24431
6974,-36562
6975,-59607
6976,-81259
6977,-36674
6978,-45782
6979,-61332
6980,-74622
6981,-32794
6982,-31711
6983,-48102
6984,-85079
6985,-47661
6986,-40217
6987,-62879
6988,-79799
6989,-46332
6990,-27640
6991,-43357
6992,-78581
6993,-63535
6994,-35553
6995,-63506
6996,-76268
6997,-64600
6998,-24160
6999,-35644
7000,-65877
7001,-84853
7002,-36687
7003,-50415
7004,-76732
7005,-83556
7006,-28011
7007,-30549
7008,-47806
7009,-86937
7010,-54260
7011,-39282
7012,-63299
7013,-87053
7014,-49601
7015,-26492
7016,-41114
7017,-72141
7018,-61043
7019,-33517
7020,-54271
7021,-69332
7022,-64362
7023,-26040
7024,-35926
7025,-61233
7026,-79359
7027,-35135
7028,-51596
7029,-69454
7030,-79357
7031,-31579
7032,-30587
7033,-49684
7034,-87897
7035,-45754
7036,-42586
7037,-63970
7038,-84309
7039,-45382
7040,-25042
7041,-40854
7042,-77627
7043,-67827
7044,-34866
7045,-52484
7046,-77912
7047,-66312
7048,-23800
7049,-35141
7050,-57926
7051,-85754
7052,-38312
7053,-46077
7054,-63202
7055,-77260
7056,-33956
7057,-32321
7058,-50814
7059,-91843
7060,-49509
7061,-40456
7062,-64096
7063,-78696
7064,-45706
7065,-26751
7066,-42611
7067,-80150
7068,-63694
7069,-34651
7070,-57377
7071,-72956
7072,-66207
7073,-23766
7074,-33704
7075,-64537
7076,-81819
7077,-36197
7078,-47701
7079,-71321
7080,-84243
7081,-27984
7082,-28432
7083,-45397
7084,-78596
7085,-46836
7086,-37103
7087,-59069
7088,-84892
7089,-49552
7090,-26210
7091,-42911
7092,-79162
7093,-71501
7094,-33603
7095,-51407
7096,-68245
7097,-64165
7098,-26447
7099,-36767
7100,-63910
7101,-86897
7102,-36514
7103,-49168
7104,-64287
7105,-74067
7106,-30801
7107,-30531
7108,-49817
7109,-88049
7110,-44588
7111,-42382
7112,-63860
7113,-87659
7114,-48977
7115,-25131
7116,-40073
7117,-78763
7118,-67011
7119,-35169
7120,-56869
7121,-83574
7122,-65231
7123,-22567
7124,-35672
7125,-57089
7126,-83860
7127,-38737
7128,-46387
7129,-63591
7130,-77753
7131,-33289
7132,-32353
7133,-49611
7134,-85226
7135,-47697
7136,-39891
7137,-58172
7138,-70989
7139,-46164
7140,-27271
7141,-42864
7142,-82090
7143,-65764
7144,-34829
7145,-59088
7146,-72134
7147,-66911
7148,-24304
7149,-33742
7150,-57469
7151,-73927
7152,-35312
7153,-46622
7154,-72016
7155,-85058
7156,-27844
7157,-28523
7158,-45973
7159,-77511
7160,-47418
7161,-37601
7162,-58912
7163,-79226
7164,-44788
7165,-25067
7166,-39934
7167,-75052
7168,-70886
7169,-33928
7170,-51406
7171,-65607
7172,-62007
7173,-25602
7174,-35436
7175,-61723
7176,-83804
7177,-34422
7178,-48686
7179,-65395
7180,-72894
7181,-29719
7182,-29549
7183,-47437
7184,-79934
7185,-42447
7186,-39690
7187,-61846
7188,-82265
7189,-46504
7190,-24318
7191,-39411
7192,-70607
7193,-62225
7194,-33411
7195,-54857
7196,-82372
7197,-68448
7198,-23650
7199,-34907
7200,-57114
7201,-85415
7202,-39527
7203,-44776
7204,-62408
7205,-74146
7206,-31771
7207,-31230
7208,-47535
7209,-86376
7210,-49637
7211,-38171
7212,-56386
7213,-70582
7214,-44897
7215,-26956
7216,-41132
7217,-77356
7218,-64495
7219,-34330
7220,-57926
7221,-73206
7222,-67714
7223,-25304
7224,-35529
7225,-61375
7226,-78403
7227,-35406
7228,-48391
7229,-72500
7230,-83574
7231,-28418
7232,-29153
7233,-44170
7234,-77612
7235,-49232
7236,-34936
7237,-55144
7238,-77772
7239,-44664
7240,-20829
7241,-32767
7242,-65893
7243,-65113
7244,-26417
7245,-43337
7246,-61156
7247,-61118
7248,-25224
7249,-36714
7250,-64007
7251,-85949
7252,-42076
7253,-56661
7254,-70077
7255,-76599
7256,-34684
7257,-33391
7258,-51261
7259,-86134
7260,-44712
7261,-41384
7262,-64953
7263,-77951
7264,-45717
7265,-24617
7266,-38849
7267,-77257
7268,-68957
7269,-35542
7270,-55376
7271,-80907
7272,-69929
7273,-22561
7274,-34353
7275,-55121
7276,-82815
7277,-38154
7278,-42967
7279,-62975
7280,-84401
7281,-35940
7282,-31074
7283,-48055
7284,-89807
7285,-51748
7286,-38286
7287,-59684
7288,-75758
7289,-50783
7290,-27333
7291,-41581
7292,-78051
7293,-65834
7294,-35096
7295,-61358
7296,-73956
7297,-69089
7298,-24892
7299,-34509
7300,-63922
7301,-83075
7302,-35423
7303,-50262
7304,-71041
7305,-84262
7306,-29291
7307,-28400
7308,-44111
7309,-81342
7310,-50079
7311,-36741
7312,-60496
7313,-78487
7314,-45175
7315,-24866
7316,-39336
7317,-66861
7318,-62309
7319,-32935
7320,-52662
7321,-68952
7322,-65636
7323,-26370
7324,-35547
7325,-61951
7326,-86062
7327,-36111
7328,-49199
7329,-66826
7330,-74249
7331,-29736
7332,-28509
7333,-47491
7334,-90901
7335,-46509
7336,-39727
7337,-61102
7338,-86770
7339,-49610
7340,-22759
7341,-36829
7342,-70612
7343,-67933
7344,-33235
7345,-55051
7346,-80409
7347,-63454
7348,-21093
7349,-32494
7350,-52542
7351,-79156
7352,-35102
7353,-42537
7354,-60083
7355,-79801
7356,-34712
7357,-28217
7358,-45776
7359,-82742
7360,-46815
7361,-37585
7362,-60655
7363,-72527
7364,-48227
7365,-24494
7366,-38431
7367,-76677
7368,-63792
7369,-33024
7370,-60851
7371,-77689
7372,-68679
7373,-23118
7374,-33205
7375,-61407
7376,-84622
7377,-37052
7378,-50680
7379,-72809
7380,-84137
7381,-29922
7382,-29416
7383,-46984
7384,-80859
7385,-52401
7386,-38346
7387,-61175
7388,-81553
7389,-49697
7390,-26336
7391,-41088
7392,-74126
7393,-73756
7394,-34960
7395,-55621
7396,-68239
7397,-63571
7398,-26583
7399,-36756
7400,-63909
7401,-89794
7402,-37071
7403,-52209
7404,-68894
7405,-79228
7406,-32836
7407,-29474
7408,-47055
7409,-85741
7410,-47579
7411,-41470
7412,-64607
7413,-89877
7414,-51207
7415,-24117
7416,-39820
7417,-68833
7418,-68340
7419,-35533
7420,-55525
7421,-79772
7422,-69665
7423,-24984
7424,-34974
7425,-54912
7426,-79459
7427,-37442
7428,-44939
7429,-59256
7430,-73896
7431,-32823
7432,-30947
7433,-47633
7434,-83330
7435,-46716
7436,-39252
7437,-61944
7438,-76069
7439,-51207
7440,-26379
7441,-40964
7442,-78870
7443,-64359
7444,-34369
7445,-59417
7446,-71532
7447,-65917
7448,-23640
7449,-33180
7450,-58356
7451,-80179
7452,-36623
7453,-49523
7454,-76714
7455,-90142
7456,-32339
7457,-30012
7458,-46171
7459,-78756
7460,-52529
7461,-37914
7462,-60259
7463,-82955
7464,-53974
7465,-26337
7466,-40547
7467,-68199
7468,-60408
7469,-33037
7470,-52946
7471,-68179
7472,-66667
7473,-26747
7474,-35234
7475,-60539
7476,-85359
7477,-36760
7478,-49745
7479,-67764
7480,-77792
7481,-33149
7482,-29067
7483,-47548
7484,-88221
7485,-47736
7486,-42932
7487,-67362
7488,-83247
7489,-48122
7490,-23758
7491,-39489
7492,-72129
7493,-73171
7494,-34881
7495,-53701
7496,-78706
7497,-71506
7498,-25367
7499,-36087
7500,-56275
7501,-85876
7502,-40337
7503,-45584
7504,-61276
7505,-82807
7506,-40115
7507,-30947
7508,-46335
7509,-82126
7510,-50113
7511,-38600
7512,-63667
7513,-77986
7514,-48022
7515,-26275
7516,-41339
7517,-77526
7518,-67861
7519,-33997
7520,-60102
7521,-75429
7522,-69730
7523,-24699
7524,-34198
7525,-57891
7526,-82529
7527,-38277
7528,-48061
7529,-72668
7530,-87564
7531,-30924
7532,-28626
7533,-44909
7534,-83549
7535,-56365
7536,-36679
7537,-57007
7538,-80237
7539,-51374
7540,-25664
7541,-40197
7542,-74149
7543,-75918
7544,-33490
7545,-51076
7546,-68442
7547,-64422
7548,-25541
7549,-34900
7550,-60609
7551,-84219
7552,-36177
7553,-49791
7554,-67006
7555,-77855
7556,-34748
7557,-29656
7558,-47454
7559,-82639
7560,-46474
7561,-39669
7562,-62161
7563,-83081
7564,-49434
7565,-24064
7566,-39050
7567,-72502
7568,-68873
7569,-33986
7570,-51778
7571,-78112
7572,-69738
7573,-23387
7574,-33678
7575,-55443
7576,-87088
7577,-40264
7578,-43565
7579,-62298
7580,-79831
7581,-36227
7582,-30511
7583,-47201
7584,-84029
7585,-49603
7586,-37341
7587,-59385
7588,-77874
7589,-52252
7590,-26728
7591,-40866
7592,-72618
7593,-62665
7594,-33441
7595,-58271
7596,-68702
7597,-69320
7598,-25487
7599,-33504
7600,-57019
7601,-80423
7602,-36489
7603,-45801
7604,-66488
7605,-83122
7606,-30559
7607,-27222
7608,-44324
7609,-83230
7610,-53539
7611,-36731
7612,-62694
7613,-87587
7614,-51749
7615,-23632
7616,-38444
7617,-64734
7618,-66655
7619,-32009
7620,-49291
7621,-65788
7622,-67843
7623,-26328
7624,-34604
7625,-58760
7626,-88721
7627,-37992
7628,-45657
7629,-59969
7630,-73213
7631,-32924
7632,-29097
7633,-45717
7634,-85814
7635,-49301
7636,-39003
7637,-61611
7638,-80574
7639,-49602
7640,-23871
7641,-37647
7642,-71305
7643,-67142
7644,-34467
7645,-56085
7646,-83523
7647,-74829
7648,-23226
7649,-34507
7650,-57270
7651,-90762
7652,-42257
7653,-44029
7654,-62109
7655,-79147
7656,-35101
7657,-29710
7658,-44932
7659,-83354
7660,-55576
7661,-36344
7662,-54066
7663,-75474
7664,-55571
7665,-28059
7666,-40965
7667,-72915
7668,-68406
7669,-34527
7670,-58768
7671,-74631
7672,-68791
7673,-25380
7674,-34014
7675,-58855
7676,-82441
7677,-36149
7678,-48154
7679,-69098
7680,-83544
7681,-31674
7682,-26499
7683,-41632
7684,-76616
7685,-52446
7686,-33635
7687,-55739
7688,-81410
7689,-48202
7690,-17514
7691,-31146
7692,-61136
7693,-67514
7694,-27980
7695,-44051
7696,-64389
7697,-68937
7698,-29970
7699,-41456
7700,-64890
7701,-89752
7702,-43183
7703,-52456
7704,-68975
7705,-84966
7706,-39552
7707,-30296
7708,-47559
7709,-87370
7710,-49919
7711,-37754
7712,-59679
7713,-77297
7714,-51721
7715,-24829
7716,-39000
7717,-72887
7718,-70559
7719,-34408
7720,-52328
7721,-74949
7722,-68865
7723,-21806
7724,-32341
7725,-52561
7726,-80517
7727,-39615
7728,-41876
7729,-61632
7730,-77383
7731,-34712
7732,-29011
7733,-45896
7734,-81517
7735,-53578
7736,-35693
7737,-55196
7738,-74459
7739,-52816
7740,-25340
7741,-39602
7742,-74177
7743,-71319
7744,-32754
7745,-55872
7746,-64372
7747,-69306
7748,-26593
7749,-33571
7750,-59171
7751,-85343
7752,-36102
7753,-47470
7754,-64415
7755,-80222
7756,-33873
7757,-27970
7758,-43872
7759,-82002
7760,-53777
7761,-36147
7762,-59962
7763,-84910
7764,-50654
7765,-22211
7766,-37391
7767,-64502
7768,-69124
7769,-32797
7770,-48476
7771,-67787
7772,-72190
7773,-26932
7774,-33367
7775,-53803
7776,-84627
7777,-38754
7778,-42347
7779,-57524
7780,-70939
7781,-33434
7782,-28500
7783,-46275
7784,-86932
7785,-50051
7786,-36772
7787,-59832
7788,-80432
7789,-55184
7790,-23046
7791,-35791
7792,-72141
7793,-70232
7794,-31885
7795,-49232
7796,-73978
7797,-70351
7798,-21697
7799,-31032
7800,-50221
7801,-74819
7802,-35319
7803,-38072
7804,-60062
7805,-77672
7806,-33074
7807,-26576
7808,-42325
7809,-80099
7810,-54222
7811,-34085
7812,-55414
7813,-72817
7814,-49425
7815,-23811
7816,-37517
7817,-72141
7818,-71679
7819,-32427
7820,-54049
7821,-65179
7822,-65686
7823,-24787
7824,-32358
7825,-55880
7826,-84816
7827,-37584
7828,-45929
7829,-63256
7830,-83614
7831,-33882
7832,-27322
7833,-41877
7834,-75949
7835,-53429
7836,-35723
7837,-58707
7838,-85667
7839,-54978
7840,-25106
7841,-39566
7842,-68419
7843,-76084
7844,-35039
7845,-47905
7846,-66367
7847,-71168
7848,-27596
7849,-35402
7850,-57303
7851,-88857
7852,-39682
7853,-45487
7854,-59812
7855,-72024
7856,-35710
7857,-28512
7858,-45079
7859,-86654
7860,-51947
7861,-38727
7862,-59932
7863,-79328
7864,-54860
7865,-23156
7866,-36381
7867,-70281
7868,-69322
7869,-33556
7870,-51829
7871,-76040
7872,-70253
7873,-22907
7874,-32704
7875,-53286
7876,-80992
7877,-40203
7878,-41403
7879,-60760
7880,-82951
7881,-36200
7882,-29304
7883,-45149
7884,-81801
7885,-56144
7886,-35577
7887,-53484
7888,-71457
7889,-51410
7890,-26608
7891,-39582
7892,-71761
7893,-73712
7894,-33871
7895,-53909
7896,-69017
7897,-68486
7898,-25614
7899,-32492
7900,-57946
7901,-85686
7902,-37666
7903,-45807
7904,-65791
7905,-83117
7906,-35962
7907,-28459
7908,-44711
7909,-85925
7910,-56051
7911,-35992
7912,-57960
7913,-83525
7914,-54571
7915,-24407
7916,-39101
7917,-64205
7918,-69498
7919,-33382
7920,-48192
7921,-63482
7922,-73634
7923,-29014
7924,-34856
7925,-54893
7926,-87380
7927,-40163
7928,-44774
7929,-61637
7930,-74789
7931,-36307
7932,-28441
7933,-45547
7934,-85596
7935,-52128
7936,-37186
7937,-59862
7938,-78137
7939,-54508
7940,-23438
7941,-37513
7942,-69379
7943,-70132
7944,-33470
7945,-51152
7946,-74226
7947,-73932
7948,-23420
7949,-33148
7950,-51847
7951,-84221
7952,-41906
7953,-41572
7954,-60508
7955,-77805
7956,-35821
7957,-28587
7958,-43814
7959,-80650
7960,-56757
7961,-34414
7962,-53334
7963,-74192
7964,-58221
7965,-26700
7966,-38997
7967,-73025
7968,-73227
7969,-34336
7970,-54859
7971,-67848
7972,-66976
7973,-25114
7974,-32879
7975,-57175
7976,-86182
7977,-38184
7978,-45291
7979,-66032
7980,-85655
7981,-34524
7982,-26172
7983,-42414
7984,-83299
7985,-58192
7986,-36137
7987,-58044
7988,-76479
7989,-50372
7990,-23517
7991,-37922
7992,-66347
7993,-76927
7994,-33397
7995,-44691
7996,-63670
7997,-71679
7998,-27592
7999,-34424
8000,-54951
8001,-92969
8002,-42129
8003,-44417
8004,-61638
8005,-77722
8006,-38722
8007,-29248
8008,-45524
8009,-77849
8010,-48512
8011,-37125
8012,-60071
8013,-80268
8014,-57451
8015,-24567
8016,-37482
8017,-66547
8018,-66976
8019,-34311
8020,-51636
8021,-74440
8022,-75457
8023,-23126
8024,-31721
8025,-50748
8026,-82603
8027,-41854
8028,-39938
8029,-63152
8030,-82989
8031,-34952
8032,-27396
8033,-43701
8034,-79070
8035,-57619
8036,-35091
8037,-53564
8038,-71917
8039,-56484
8040,-25835
8041,-39158
8042,-71418
8043,-77714
8044,-33744
8045,-54542
8046,-66514
8047,-68975
8048,-25386
8049,-31407
8050,-55006
8051,-85427
8052,-36684
8053,-43118
8054,-63131
8055,-81526
8056,-33886
8057,-25474
8058,-43127
8059,-85226
8060,-53367
8061,-34904
8062,-57552
8063,-81726
8064,-53960
8065,-22284
8066,-36659
8067,-65057
8068,-74772
8069,-34749
8070,-48339
8071,-68461
8072,-76076
8073,-28989
8074,-33916
8075,-52456
8076,-87005
8077,-43172
8078,-42160
8079,-57312
8080,-77247
8081,-38833
8082,-29549
8083,-45165
8084,-81146
8085,-54182
8086,-37438
8087,-60227
8088,-72832
8089,-53266
8090,-24741
8091,-37283
8092,-70815
8093,-73036
8094,-34696
8095,-52220
8096,-73828
8097,-77523
8098,-25341
8099,-32789
8100,-52577
8101,-81376
8102,-41060
8103,-41126
8104,-64716
8105,-83495
8106,-35724
8107,-26771
8108,-42889
8109,-81245
8110,-60281
8111,-30614
8112,-46472
8113,-67774
8114,-51586
8115,-19359
8116,-30657
8117,-57984
8118,-67569
8119,-27284
8120,-43503
8121,-62623
8122,-74575
8123,-29262
8124,-35759
8125,-60906
8126,-95084
8127,-45695
8128,-50620
8129,-68946
8130,-84221
8131,-41789
8132,-28929
8133,-44487
8134,-84323
8135,-52537
8136,-36305
8137,-58664
8138,-84182
8139,-55034
8140,-21683
8141,-37092
8142,-62566
8143,-77076
8144,-35867
8145,-50157
8146,-67494
8147,-68329
8148,-24576
8149,-33113
8150,-51829
8151,-85657
8152,-41021
8153,-38559
8154,-54031
8155,-72608
8156,-37412
8157,-29054
8158,-44283
8159,-80367
8160,-56155
8161,-35340
8162,-58096
8163,-69984
8164,-54581
8165,-24277
8166,-36816
8167,-71248
8168,-75275
8169,-32950
8170,-53706
8171,-69873
8172,-74110
8173,-25196
8174,-31242
8175,-51968
8176,-83463
8177,-39254
8178,-42834
8179,-64491
8180,-87682
8181,-36327
8182,-26107
8183,-42499
8184,-80020
8185,-64148
8186,-33361
8187,-51608
8188,-76068
8189,-58581
8190,-24087
8191,-36444
8192,-65701
8193,-77073
8194,-32862
8195,-46772
8196,-61697
8197,-70966
8198,-28588
8199,-32769
8200,-52889
8201,-84237
8202,-39757
8203,-42571
8204,-61725
8205,-74279
8206,-37242
8207,-26070
8208,-42064
8209,-81366
8210,-51216
8211,-36209
8212,-58155
8213,-79868
8214,-55392
8215,-20442
8216,-33306
8217,-59899
8218,-71089
8219,-32807
8220,-47488
8221,-71350
8222,-71876
8223,-22284
8224,-29940
8225,-47594
8226,-83658
8227,-43136
8228,-36792
8229,-54131
8230,-76672
8231,-36876
8232,-25812
8233,-40502
8234,-76836
8235,-53509
8236,-31849
8237,-52706
8238,-69172
8239,-56940
8240,-23989
8241,-35611
8242,-66982
8243,-73865
8244,-31467
8245,-49789
8246,-64573
8247,-73159
8248,-26704
8249,-30480
8250,-53484
8251,-87122
8252,-39879
8253,-42513
8254,-64896
8255,-86651
8256,-35516
8257,-25541
8258,-40931
8259,-76021
8260,-63407
8261,-34596
8262,-53713
8263,-78392
8264,-57091
8265,-24268
8266,-38862
8267,-63597
8268,-77179
8269,-35115
8270,-47742
8271,-62928
8272,-73094
8273,-29020
8274,-34163
8275,-53519
8276,-84466
8277,-39825
8278,-43706
8279,-58928
8280,-73081
8281,-42242
8282,-27334
8283,-43955
8284,-85372
8285,-55757
8286,-35339
8287,-56921
8288,-81495
8289,-59759
8290,-23504
8291,-36175
8292,-66519
8293,-76266
8294,-34744
8295,-49203
8296,-73637
8297,-78292
8298,-25661
8299,-32285
8300,-50416
8301,-82343
8302,-44166
8303,-40196
8304,-58109
8305,-81207
8306,-42329
8307,-28775
8308,-43763
8309,-79061
8310,-62950
8311,-34299
8312,-51499
8313,-67720
8314,-55439
8315,-25151
8316,-37301
8317,-67572
8318,-76179
8319,-34091
8320,-54376
8321,-68227
8322,-72371
8323,-28226
8324,-32012
8325,-53652
8326,-88201
8327,-40416
8328,-45045
8329,-65791
8330,-84534
8331,-37102
8332,-26247
8333,-42302
8334,-80918
8335,-62190
8336,-35161
8337,-55878
8338,-80084
8339,-60324
8340,-24524
8341,-37284
8342,-62914
8343,-73759
8344,-33953
8345,-48191
8346,-64011
8347,-75229
8348,-31192
8349,-33851
8350,-53577
8351,-88443
8352,-42232
8353,-44331
8354,-63636
8355,-78172
8356,-42112
8357,-27732
8358,-43697
8359,-80299
8360,-55094
8361,-35976
8362,-60648
8363,-79223
8364,-55935
8365,-22159
8366,-36201
8367,-66857
8368,-73871
8369,-34207
8370,-48832
8371,-75686
8372,-82146
8373,-25708
8374,-32034
8375,-49819
8376,-87268
8377,-46195
8378,-39867
8379,-57416
8380,-76931
8381,-38363
8382,-29142
8383,-44131
8384,-80062
8385,-61396
8386,-36104
8387,-60360
8388,-76755
8389,-64071
8390,-26482
8391,-38463
8392,-69165
8393,-75129
8394,-33949
8395,-53763
8396,-71431
8397,-79314
8398,-27796
8399,-32158
8400,-52156
8401,-84907
8402,-42001
8403,-40725
8404,-63937
8405,-88424
8406,-38202
8407,-25617
8408,-40123
8409,-72772
8410,-60340
8411,-34682
8412,-54007
8413,-76285
8414,-62423
8415,-26572
8416,-39267
8417,-67591
8418,-83867
8419,-35163
8420,-50826
8421,-62121
8422,-68666
8423,-29816
8424,-33412
8425,-54697
8426,-87979
8427,-42103
8428,-44411
8429,-65384
8430,-80699
8431,-41032
8432,-27171
8433,-43537
8434,-83777
8435,-56574
8436,-35668
8437,-56561
8438,-83238
8439,-62841
8440,-22433
8441,-35779
8442,-61386
8443,-76229
8444,-35056
8445,-47834
8446,-69987
8447,-75763
8448,-27267
8449,-31375
8450,-48522
8451,-81989
8452,-43661
8453,-38524
8454,-55604
8455,-77209
8456,-43013
8457,-28002
8458,-43572
8459,-80982
8460,-60689
8461,-35201
8462,-58864
8463,-72443
8464,-57611
8465,-24826
8466,-36781
8467,-67008
8468,-76869
8469,-33690
8470,-54356
8471,-70994
8472,-78691
8473,-27116
8474,-30286
8475,-49513
8476,-84628
8477,-41872
8478,-39548
8479,-61927
8480,-83450
8481,-37236
8482,-24272
8483,-40335
8484,-73153
8485,-58586
8486,-33381
8487,-50779
8488,-72182
8489,-62735
8490,-24759
8491,-36972
8492,-63354
8493,-75434
8494,-33087
8495,-46307
8496,-61762
8497,-69748
8498,-29480
8499,-33337
8500,-52741
8501,-85792
8502,-42646
8503,-43134
8504,-63373
8505,-78302
8506,-42629
8507,-26844
8508,-43423
8509,-81675
8510,-57374
8511,-35738
8512,-58439
8513,-83801
8514,-61218
8515,-22732
8516,-35699
8517,-61856
8518,-79364
8519,-36669
8520,-48976
8521,-73443
8522,-78852
8523,-26715
8524,-30867
8525,-49277
8526,-89202
8527,-47607
8528,-38897
8529,-55272
8530,-74078
8531,-44023
8532,-26985
8533,-41172
8534,-78357
8535,-62134
8536,-30282
8537,-48305
8538,-66249
8539,-63937
8540,-20788
8541,-29956
8542,-58276
8543,-69373
8544,-27795
8545,-46619
8546,-62691
8547,-76007
8548,-30487
8549,-35043
8550,-57718
8551,-93860
8552,-47849
8553,-49446
8554,-69165
8555,-92111
8556,-42263
8557,-25220
8558,-39874
8559,-72982
8560,-65849
8561,-33232
8562,-52550
8563,-78741
8564,-66629
8565,-24254
8566,-36707
8567,-60285
8568,-74732
8569,-33182
8570,-44547
8571,-59948
8572,-75338
8573,-29857
8574,-31031
8575,-49494
8576,-87250
8577,-43989
8578,-42284
8579,-62559
8580,-78352
8581,-46184
8582,-26189
8583,-41598
8584,-80973
8585,-59889
8586,-34268
8587,-56133
8588,-77052
8589,-59360
8590,-22685
8591,-34912
8592,-61026
8593,-73779
8594,-34815
8595,-47848
8596,-72932
8597,-83208
8598,-27923
8599,-30656
8600,-46625
8601,-81621
8602,-46161
8603,-37341
8604,-55573
8605,-78835
8606,-44711
8607,-26971
8608,-40599
8609,-79215
8610,-64953
8611,-33917
8612,-53746
8613,-68382
8614,-63496
8615,-25474
8616,-36754
8617,-66887
8618,-78156
8619,-33659
8620,-51741
8621,-65122
8622,-70457
8623,-27262
8624,-29734
8625,-47182
8626,-78614
8627,-40544
8628,-41589
8629,-62484
8630,-87578
8631,-41517
8632,-22639
8633,-38306
8634,-75054
8635,-64259
8636,-33630
8637,-54496
8638,-76588
8639,-58046
8640,-21161
8641,-33499
8642,-56494
8643,-77796
8644,-33328
8645,-43104
8646,-59108
8647,-74730
8648,-29605
8649,-30101
8650,-47836
8651,-89925
8652,-45996
8653,-38151
8654,-57800
8655,-72899
8656,-41566
8657,-24681
8658,-40584
8659,-80346
8660,-58364
8661,-32296
8662,-56714
8663,-73494
8664,-62643
8665,-21497
8666,-31673
8667,-61447
8668,-75751
8669,-34006
8670,-48339
8671,-70857
8672,-84417
8673,-27015
8674,-29662
8675,-46449
8676,-79304
8677,-45856
8678,-37871
8679,-60147
8680,-81853
8681,-42499
8682,-25776
8683,-41283
8684,-76951
8685,-66364
8686,-34261
8687,-52352
8688,-66984
8689,-63304
8690,-27262
8691,-38186
8692,-64796
8693,-81571
8694,-35411
8695,-50369
8696,-63352
8697,-74215
8698,-30928
8699,-31522
8700,-50734
8701,-85313
8702,-43292
8703,-42919
8704,-63273
8705,-84626
8706,-45093
8707,-25754
8708,-40901
8709,-81957
8710,-59990
8711,-35259
8712,-60329
8713,-82974
8714,-64385
8715,-22675
8716,-35608
8717,-58984
8718,-83170
8719,-38196
8720,-45921
8721,-65224
8722,-81463
8723,-31221
8724,-32686
8725,-48794
8726,-86254
8727,-48465
8728,-38267
8729,-54881
8730,-73639
8731,-44596
8732,-27290
8733,-42211
8734,-76446
8735,-58889
8736,-34213
8737,-59009
8738,-72837
8739,-64821
8740,-24696
8741,-34960
8742,-66028
8743,-79906
8744,-34857
8745,-51159
8746,-68519
8747,-76497
8748,-26893
8749,-30231
8750,-47586
8751,-80661
8752,-46953
8753,-40086
8754,-63352
8755,-86392
8756,-41848
8757,-25855
8758,-42091
8759,-75069
8760,-68589
8761,-34166
8762,-51805
8763,-71029
8764,-66067
8765,-26517
8766,-37074
8767,-62506
8768,-82662
8769,-35554
8770,-49836
8771,-66386
8772,-77401
8773,-31921
8774,-31973
8775,-51283
8776,-90509
8777,-45087
8778,-42295
8779,-64336
8780,-77281
8781,-44972
8782,-25758
8783,-41172
8784,-77012
8785,-61364
8786,-34556
8787,-55254
8788,-77638
8789,-61599
8790,-21542
8791,-34119
8792,-58782
8793,-80744
8794,-36877
8795,-45036
8796,-68972
8797,-82355
8798,-31362
8799,-31195
8800,-47046
8801,-79067
8802,-44499
8803,-38255
8804,-56621
8805,-76211
8806,-48287
8807,-27995
8808,-42459
8809,-72523
8810,-60020
8811,-33552
8812,-55291
8813,-67107
8814,-59653
8815,-24986
8816,-37038
8817,-63393
8818,-76581
8819,-34046
8820,-52346
8821,-68228
8822,-76346
8823,-29302
8824,-29487
8825,-48119
8826,-87222
8827,-47341
8828,-40362
8829,-65448
8830,-84440
8831,-39311
8832,-24322
8833,-40398
8834,-76046
8835,-71218
8836,-33967
8837,-50966
8838,-73111
8839,-62861
8840,-24757
8841,-35789
8842,-60546
8843,-85907
8844,-36387
8845,-46506
8846,-61786
8847,-73402
8848,-32077
8849,-31832
8850,-50853
8851,-88149
8852,-45247
8853,-40607
8854,-61445
8855,-81299
8856,-47894
8857,-25829
8858,-40721
8859,-81084
8860,-63314
8861,-34741
8862,-57732
8863,-73051
8864,-65736
8865,-22945
8866,-32812
8867,-60862
8868,-78887
8869,-35511
8870,-48094
8871,-72117
8872,-80176
8873,-27094
8874,-29492
8875,-46175
8876,-82836
8877,-52612
8878,-37114
8879,-54529
8880,-78229
8881,-47048
8882,-26770
8883,-41868
8884,-73384
8885,-67951
8886,-34537
8887,-52925
8888,-69370
8889,-64752
8890,-26421
8891,-36361
8892,-61830
8893,-80591
8894,-35751
8895,-50918
8896,-68053
8897,-79725
8898,-31395
8899,-29697
8900,-49147
8901,-85455
8902,-42366
8903,-40458
8904,-61799
8905,-81813
8906,-45271
8907,-23892
8908,-39683
8909,-71097
8910,-58194
8911,-32669
8912,-52277
8913,-81891
8914,-65530
8915,-22250
8916,-34627
8917,-57886
8918,-83126
8919,-36116
8920,-42077
8921,-59406
8922,-80765
8923,-34917
8924,-31160
8925,-47089
8926,-86977
8927,-50047
8928,-38926
8929,-57830
8930,-72972
8931,-45958
8932,-26829
8933,-41267
8934,-82182
8935,-68467
8936,-35621
8937,-60623
8938,-70680
8939,-65002
8940,-24981
8941,-35250
8942,-63604
8943,-80452
8944,-35301
8945,-50741
8946,-69781
8947,-85153
8948,-29542
8949,-28923
8950,-46282
8951,-83905
8952,-50039
8953,-37872
8954,-60090
8955,-85018
8956,-47623
8957,-25444
8958,-40643
8959,-71243
8960,-67471
8961,-32866
8962,-48275
8963,-67712
8964,-65950
8965,-26293
8966,-36206
8967,-60821
8968,-84151
8969,-36394
8970,-47422
8971,-61932
8972,-69454
8973,-28488
8974,-28066
8975,-44171
8976,-78527
8977,-39414
8978,-34771
8979,-55297
8980,-73487
8981,-41861
8982,-19732
8983,-34356
8984,-75107
8985,-61553
8986,-35351
8987,-57671
8988,-85782
8989,-74116
8990,-27023
8991,-39434
8992,-60769
8993,-81722
8994,-39632
8995,-46164
8996,-66089
8997,-80057
8998,-30737
8999,-29259
9000,-46280
9001,-79266
9002,-47075
9003,-35638
9004,-51084
9005,-74719
9006,-47407
9007,-27522
9008,-41237
9009,-81044
9010,-73348
9011,-33933
9012,-53697
9013,-63912
9014,-62085
9015,-25494
9016,-34793
9017,-63372
9018,-84494
9019,-34646
9020,-47341
9021,-63349
9022,-79337
9023,-31487
9024,-28666
9025,-46542
9026,-86623
9027,-49863
9028,-37604
9029,-60444
9030,-86892
9031,-45290
9032,-23441
9033,-39023
9034,-69160
9035,-68529
9036,-33592
9037,-49958
9038,-72700
9039,-70232
9040,-25321
9041,-35225
9042,-56288
9043,-81606
9044,-36546
9045,-42165
9046,-57781
9047,-78681
9048,-35648
9049,-31210
9050,-46342
9051,-79853
9052,-45909
9053,-38659
9054,-61452
9055,-75578
9056,-47631
9057,-24284
9058,-38602
9059,-76106
9060,-61247
9061,-33499
9062,-57326
9063,-75884
9064,-67288
9065,-22160
9066,-32274
9067,-56806
9068,-82207
9069,-37037
9070,-43440
9071,-69265
9072,-86033
9073,-29433
9074,-28192
9075,-43291
9076,-80292
9077,-53237
9078,-33999
9079,-53497
9080,-78620
9081,-48328
9082,-24590
9083,-37810
9084,-71799
9085,-68832
9086,-30958
9087,-50259
9088,-64405
9089,-59947
9090,-23309
9091,-33670
9092,-58741
9093,-81759
9094,-33721
9095,-46517
9096,-61611
9097,-76311
9098,-32040
9099,-27407
9100,-45364
9101,-88111
9102,-45926
9103,-38016
9104,-59126
9105,-83751
9106,-47337
9107,-22629
9108,-37214
9109,-71332
9110,-66388
9111,-32492
9112,-49541
9113,-74221
9114,-66069
9115,-22937
9116,-33815
9117,-54292
9118,-85789
9119,-40109
9120,-43836
9121,-59179
9122,-76609
9123,-35167
9124,-30652
9125,-49076
9126,-90599
9127,-52943
9128,-38572
9129,-57943
9130,-74938
9131,-48121
9132,-26259
9133,-40726
9134,-75344
9135,-66301
9136,-33259
9137,-54458
9138,-72824
9139,-69503
9140,-23839
9141,-33207
9142,-54901
9143,-77922
9144,-36607
9145,-45719
9146,-70799
9147,-83867
9148,-29263
9149,-27603
9150,-44026
9151,-80695
9152,-51564
9153,-35206
9154,-55627
9155,-83210
9156,-50193
9157,-25609
9158,-39774
9159,-71396
9160,-70601
9161,-32950
9162,-49795
9163,-63477
9164,-65843
9165,-26867
9166,-35736
9167,-57641
9168,-80777
9169,-35693
9170,-47777
9171,-63865
9172,-76109
9173,-34229
9174,-29348
9175,-47171
9176,-88066
9177,-48861
9178,-39481
9179,-60987
9180,-83585
9181,-48614
9182,-24355
9183,-38790
9184,-72496
9185,-64340
9186,-33824
9187,-53651
9188,-76407
9189,-67261
9190,-23276
9191,-34941
9192,-55255
9193,-81997
9194,-39274
9195,-41996
9196,-58232
9197,-75702
9198,-33137
9199,-31078
9200,-46809
9201,-81682
9202,-47868
9203,-36659
9204,-55374
9205,-71096
9206,-48480
9207,-26219
9208,-39386
9209,-77058
9210,-70494
9211,-33679
9212,-56917
9213,-68775
9214,-65121
9215,-24575
9216,-34872
9217,-60379
9218,-83083
9219,-36705
9220,-46884
9221,-67673
9222,-80500
9223,-30086
9224,-27669
9225,-44533
9226,-78878
9227,-47751
9228,-36546
9229,-59585
9230,-83916
9231,-52185
9232,-24454
9233,-39156
9234,-68552
9235,-73543
9236,-33346
9237,-46237
9238,-63571
9239,-68082
9240,-27887
9241,-35351
9242,-58560
9243,-85574
9244,-37317
9245,-46270
9246,-61405
9247,-73034
9248,-31797
9249,-28427
9250,-47342
9251,-87317
9252,-48562
9253,-38689
9254,-61834
9255,-78964
9256,-50264
9257,-24087
9258,-38662
9259,-70799
9260,-68059
9261,-34222
9262,-54663
9263,-80739
9264,-71889
9265,-22764
9266,-34579
9267,-55101
9268,-84044
9269,-39394
9270,-42266
9271,-60535
9272,-77177
9273,-34189
9274,-28881
9275,-45881
9276,-88769
9277,-57224
9278,-35762
9279,-53686
9280,-75200
9281,-57528
9282,-26563
9283,-40522
9284,-70622
9285,-62914
9286,-32694
9287,-52944
9288,-65379
9289,-66620
9290,-25050
9291,-33646
9292,-59496
9293,-82694
9294,-36069
9295,-49072
9296,-67668
9297,-85272
9298,-33257
9299,-28177
9300,-45289
9301,-81326
9302,-48505
9303,-36819
9304,-58217
9305,-82453
9306,-47066
9307,-23389
9308,-38890
9309,-68880
9310,-74681
9311,-34254
9312,-49545
9313,-65327
9314,-64329
9315,-25824
9316,-34572
9317,-56881
9318,-87372
9319,-37208
9320,-44733
9321,-61748
9322,-78843
9323,-37282
9324,-29449
9325,-47241
9326,-84259
9327,-49544
9328,-38382
9329,-60531
9330,-72131
9331,-50282
9332,-23051
9333,-36596
9334,-71661
9335,-64816
9336,-33348
9337,-54478
9338,-80182
9339,-72133
9340,-21197
9341,-31147
9342,-49997
9343,-79094
9344,-39137
9345,-40702
9346,-62667
9347,-83445
9348,-35261
9349,-27882
9350,-43416
9351,-78715
9352,-52637
9353,-36101
9354,-54578
9355,-78444
9356,-54162
9357,-25683
9358,-39441
9359,-69731
9360,-65411
9361,-33231
9362,-54625
9363,-65835
9364,-66134
9365,-25831
9366,-33599
9367,-59400
9368,-85849
9369,-35819
9370,-46876
9371,-64566
9372,-80866
9373,-34109
9374,-27922
9375,-44774
9376,-86931
9377,-54899
9378,-36390
9379,-60686
9380,-87321
9381,-50337
9382,-23058
9383,-39078
9384,-71367
9385,-77938
9386,-35197
9387,-50790
9388,-65854
9389,-68209
9390,-26931
9391,-34106
9392,-54025
9393,-79283
9394,-36914
9395,-43419
9396,-59689
9397,-80536
9398,-37056
9399,-27928
9400,-42800
9401,-75298
9402,-44164
9403,-33039
9404,-57777
9405,-74390
9406,-50182
9407,-18556
9408,-30616
9409,-66133
9410,-61551
9411,-28826
9412,-52342
9413,-72677
9414,-72214
9415,-26582
9416,-38337
9417,-61336
9418,-88336
9419,-45638
9420,-49701
9421,-72915
9422,-87639
9423,-33114
9424,-28678
9425,-43294
9426,-78532
9427,-54771
9428,-34419
9429,-52297
9430,-72156
9431,-48727
9432,-25217
9433,-38739
9434,-72177
9435,-75809
9436,-33584
9437,-52063
9438,-64392
9439,-68866
9440,-27707
9441,-34945
9442,-59880
9443,-91570
9444,-37682
9445,-46134
9446,-64452
9447,-82535
9448,-37296
9449,-28559
9450,-44245
9451,-81309
9452,-50450
9453,-39051
9454,-63248
9455,-87426
9456,-51147
9457,-21904
9458,-37177
9459,-64474
9460,-69132
9461,-33424
9462,-47832
9463,-74312
9464,-71964
9465,-25156
9466,-33313
9467,-51449
9468,-85922
9469,-41734
9470,-40472
9471,-58018
9472,-78614
9473,-39194
9474,-29307
9475,-45334
9476,-84698
9477,-54589
9478,-35651
9479,-59067
9480,-72946
9481,-53315
9482,-25226
9483,-37962
9484,-70922
9485,-67425
9486,-32759
9487,-54454
9488,-70857
9489,-72279
9490,-24107
9491,-31234
9492,-49396
9493,-74934
9494,-36843
9495,-43083
9496,-67877
9497,-85977
9498,-32121
9499,-25695
9500,-41624
9501,-79107
9502,-55634
9503,-33540
9504,-53209
9505,-78729
9506,-53966
9507,-23477
9508,-36991
9509,-66524
9510,-73647
9511,-31391
9512,-46057
9513,-63718
9514,-67286
9515,-25383
9516,-31859
9517,-53713
9518,-82925
9519,-34812
9520,-43784
9521,-61102
9522,-76777
9523,-35623
9524,-26200
9525,-42754
9526,-82846
9527,-49551
9528,-36351
9529,-60653
9530,-83101
9531,-53773
9532,-20616
9533,-34431
9534,-64198
9535,-68492
9536,-32836
9537,-51744
9538,-77174
9539,-72558
9540,-22562
9541,-31535
9542,-50539
9543,-84136
9544,-42517
9545,-42254
9546,-59723
9547,-78419
9548,-37327
9549,-29292
9550,-44374
9551,-82576
9552,-53372
9553,-35843
9554,-54816
9555,-71870
9556,-53012
9557,-26427
9558,-39473
9559,-69679
9560,-67719
9561,-33382
9562,-56059
9563,-69698
9564,-71084
9565,-26620
9566,-33523
9567,-58470
9568,-88605
9569,-38683
9570,-47921
9571,-69852
9572,-86253
9573,-33977
9574,-26662
9575,-42932
9576,-81727
9577,-56987
9578,-36099
9579,-59468
9580,-81033
9581,-51841
9582,-23274
9583,-38136
9584,-68037
9585,-73734
9586,-32756
9587,-48767
9588,-67854
9589,-69526
9590,-27142
9591,-35044
9592,-55561
9593,-81347
9594,-39037
9595,-44861
9596,-63632
9597,-77729
9598,-38091
9599,-28871
9600,-46177
9601,-87936
9602,-52871
9603,-39297
9604,-64966
9605,-80384
9606,-58361
9607,-24285
9608,-37859
9609,-68819
9610,-73405
9611,-36181
9612,-55624
9613,-77002
9614,-74342
9615,-23691
9616,-33574
9617,-50696
9618,-79837
9619,-41235
9620,-41081
9621,-61986
9622,-82353
9623,-37969
9624,-28029
9625,-43124
9626,-83442
9627,-59839
9628,-34792
9629,-55446
9630,-71245
9631,-50804
9632,-25509
9633,-39112
9634,-70198
9635,-73619
9636,-33321
9637,-54813
9638,-66674
9639,-68891
9640,-27632
9641,-33964
9642,-55881
9643,-85582
9644,-37963
9645,-44906
9646,-65414
9647,-84399
9648,-34763
9649,-26934
9650,-43776
9651,-84220
9652,-57304
9653,-35624
9654,-59474
9655,-87109
9656,-53827
9657,-22099
9658,-36398
9659,-64359
9660,-78058
9661,-34264
9662,-48900
9663,-66466
9664,-72082
9665,-28171
9666,-34262
9667,-55435
9668,-92651
9669,-41801
9670,-43616
9671,-61169
9672,-79763
9673,-40137
9674,-28825
9675,-45346
9676,-81190
9677,-51509
9678,-36337
9679,-61141
9680,-80637
9681,-59151
9682,-24009
9683,-37149
9684,-71637
9685,-70524
9686,-33573
9687,-50667
9688,-77812
9689,-75844
9690,-23729
9691,-31854
9692,-49846
9693,-81665
9694,-40809
9695,-40471
9696,-62512
9697,-79494
9698,-38332
9699,-28247
9700,-44654
9701,-84614
9702,-59644
9703,-35720
9704,-56506
9705,-69712
9706,-53577
9707,-25351
9708,-38817
9709,-70459
9710,-75116
9711,-32691
9712,-55768
9713,-70533
9714,-76498
9715,-28283
9716,-32711
9717,-55425
9718,-84910
9719,-38794
9720,-47351
9721,-66443
9722,-82803
9723,-35898
9724,-26301
9725,-41433
9726,-74074
9727,-57084
9728,-36107
9729,-61708
9730,-86326
9731,-60641
9732,-23587
9733,-37145
9734,-64631
9735,-76891
9736,-34272
9737,-48143
9738,-65096
9739,-70689
9740,-27584
9741,-34184
9742,-54594
9743,-87447
9744,-39777
9745,-43594
9746,-60726
9747,-75626
9748,-40456
9749,-27831
9750,-43936
9751,-85267
9752,-53372
9753,-35942
9754,-60239
9755,-73791
9756,-52380
9757,-22806
9758,-35167
9759,-70437
9760,-75863
9761,-33961
9762,-53732
9763,-77729
9764,-74467
9765,-22961
9766,-31373
9767,-49933
9768,-82172
9769,-43083
9770,-40210
9771,-61526
9772,-78201
9773,-37836
9774,-28168
9775,-43774
9776,-79353
9777,-58772
9778,-34347
9779,-53573
9780,-71266
9781,-57512
9782,-25412
9783,-38274
9784,-69702
9785,-76521
9786,-33574
9787,-54171
9788,-68237
9789,-75793
9790,-28941
9791,-32122
9792,-55372
9793,-86874
9794,-38674
9795,-46772
9796,-68845
9797,-84592
9798,-38751
9799,-26579
9800,-42554
9801,-77711
9802,-55828
9803,-36164
9804,-62141
9805,-83017
9806,-55632
9807,-21619
9808,-35444
9809,-62520
9810,-78896
9811,-31004
9812,-41692
9813,-57480
9814,-64369
9815,-22723
9816,-28556
9817,-47233
9818,-80930
9819,-37502
9820,-40337
9821,-61519
9822,-77701
9823,-42253
9824,-33079
9825,-51215
9826,-85379
9827,-58546
9828,-41654
9829,-67648
9830,-78072
9831,-59021
9832,-25128
9833,-37082
9834,-68229
9835,-70799
9836,-33570
9837,-55351
9838,-79575
9839,-80242
9840,-24371
9841,-31890
9842,-49916
9843,-86207
9844,-45182
9845,-41176
9846,-65014
9847,-83784
9848,-39743
9849,-26786
9850,-41879
9851,-80949
9852,-63179
9853,-33934
9854,-53167
9855,-68562
9856,-53652
9857,-24300
9858,-36450
9859,-65707
9860,-73674
9861,-32589
9862,-51562
9863,-64663
9864,-70445
9865,-27036
9866,-30691
9867,-52056
9868,-83599
9869,-38233
9870,-44527
9871,-65093
9872,-80755
9873,-37254
9874,-25408
9875,-40627
9876,-76468
9877,-57085
9878,-36332
9879,-59676
9880,-83211
9881,-56073
9882,-22103
9883,-36396
9884,-62164
9885,-78080
9886,-34518
9887,-49890
9888,-69958
9889,-79291
9890,-30722
9891,-33686
9892,-52576
9893,-86363
9894,-41166
9895,-43457
9896,-62355
9897,-75891
9898,-38977
9899,-27777
9900,-43437
9901,-81448
9902,-57238
9903,-34731
9904,-60044
9905,-76604
9906,-57749
9907,-23576
9908,-35377
9909,-68160
9910,-78378
9911,-33231
9912,-48911
9913,-73093
9914,-75269
9915,-24501
9916,-29809
9917,-48780
9918,-82911
9919,-42869
9920,-39686
9921,-64544
9922,-87367
9923,-39314
9924,-24357
9925,-39540
9926,-74579
9927,-61529
9928,-32030
9929,-53595
9930,-69063
9931,-59359
9932,-23824
9933,-35539
9934,-65956
9935,-77587
9936,-31152
9937,-49847
9938,-63932
9939,-68887
9940,-26497
9941,-30790
9942,-51717
9943,-86339
9944,-38809
9945,-44476
9946,-64197
9947,-78681
9948,-39045
9949,-25819
9950,-41432
9951,-77647
9952,-55868
9953,-35274
9954,-59560
9955,-80395
9956,-53644
9957,-21653
9958,-36746
9959,-64119
9960,-84162
9961,-37398
9962,-48536
9963,-68050
9964,-75092
9965,-28015
9966,-32481
9967,-50126
9968,-82097
9969,-41822
9970,-40621
9971,-58164
9972,-75999
9973,-40624
9974,-28833
9975,-43951
9976,-81023
9977,-57975
9978,-35993
9979,-62384
9980,-76741
9981,-60554
9982,-24764
9983,-36687
9984,-74627
9985,-78801
9986,-33688
9987,-55622
9988,-74245
9989,-74866
9990,-26034
9991,-31041
9992,-49827
9993,-84257
9994,-45474
9995,-42344
9996,-69941
9997,-84289
9998,-37447
9999,-26434
10000,-41779
10001,-78011
10002,-63854
10003,-34577
10004,-55377
10005,-71902
10006,-62363
10007,-26382
10008,-39039
10009,-69547
10010,-85198
10011,-35349
10012,-50631
10013,-65105
10014,-74319
10015,-30654
10016,-32506
10017,-53091
10018,-85474
10019,-39962
10020,-43506
10021,-66671
10022,-86776
10023,-44111
10024,-26027
10025,-41564
10026,-82924
10027,-60605
10028,-36266
10029,-60877
10030,-87144
10031,-60290
10032,-22081
10033,-36066
10034,-60159
10035,-76309
10036,-35375
10037,-50721
10038,-69736
10039,-77533
10040,-28626
10041,-32201
10042,-49895
10043,-86952
10044,-46146
10045,-39727
10046,-58734
10047,-76679
10048,-41418
10049,-28751
10050,-43599
10051,-83116
10052,-61694
10053,-35643
10054,-60396
10055,-73562
10056,-60163
10057,-24805
10058,-36817
10059,-70316
10060,-76139
10061,-33398
10062,-57684
10063,-71038
10064,-75411
10065,-26912
10066,-31667
10067,-50758
10068,-83799
10069,-42346
10070,-41429
10071,-66010
10072,-85651
10073,-37774
10074,-25313
10075,-41848
10076,-75479
10077,-63916
10078,-33361
10079,-52420
10080,-73777
10081,-61222
10082,-25332
10083,-36626
10084,-67311
10085,-88758
10086,-36047
10087,-52284
10088,-67262
10089,-74966
10090,-29624
10091,-33461
10092,-53725
10093,-87946
10094,-41894
10095,-44162
10096,-63595
10097,-78188
10098,-42289
10099,-26883
10100,-43279
10101,-80304
10102,-57918
10103,-36546
10104,-59583
10105,-83817
10106,-62996
10107,-23456
10108,-36552
10109,-62502
10110,-78579
10111,-35848
10112,-49487
10113,-74431
10114,-80856
10115,-28846
10116,-32096
10117,-49359
10118,-87386
10119,-47860
10120,-39396
10121,-59004
10122,-78191
10123,-44709
10124,-27817
10125,-42887
10126,-78689
10127,-63437
10128,-34911
10129,-58080
10130,-73497
10131,-63267
10132,-26479
10133,-38105
10134,-66467
10135,-76219
10136,-33874
10137,-50936
10138,-66902
10139,-77166
10140,-28101
10141,-30442
10142,-48724
10143,-81924
10144,-43749
10145,-44427
10146,-67423
10147,-86406
10148,-40082
10149,-25484
10150,-40395
10151,-71463
10152,-60953
10153,-34226
10154,-57552
10155,-79902
10156,-62927
10157,-23587
10158,-35884
10159,-60034
10160,-76025
10161,-32211
10162,-45567
10163,-60303
10164,-71316
10165,-29294
10166,-32145
10167,-50035
10168,-83978
10169,-42567
10170,-42401
10171,-63631
10172,-76214
10173,-42117
10174,-27406
10175,-42819
10176,-82299
10177,-60938
10178,-36067
10179,-61242
10180,-80536
10181,-63430
10182,-23721
10183,-36107
10184,-61852
10185,-73982
10186,-35354
10187,-53921
10188,-77845
10189,-79317
10190,-26222
10191,-31177
10192,-48491
10193,-86793
10194,-48722
10195,-39817
10196,-62981
10197,-80152
10198,-44842
10199,-27211
10200,-42054
10201,-79369
10202,-68752
10203,-34382
10204,-56547
10205,-70111
10206,-60057
10207,-26124
10208,-36653
10209,-62713
10210,-73995
10211,-33366
10212,-52992
10213,-67866
10214,-73817
10215,-30973
10216,-32392
10217,-52251
10218,-85919
10219,-39919
10220,-41849
10221,-64293
10222,-82861
10223,-42909
10224,-21207
10225,-34783
10226,-72947
10227,-56542
10228,-28706
10229,-50165
10230,-81076
10231,-62921
10232,-21354
10233,-36227
10234,-63192
10235,-84297
10236,-41361
10237,-52805
10238,-74295
10239,-83582
10240,-33489
10241,-33947
10242,-51316
10243,-91871
10244,-49075
10245,-39146
10246,-58598
10247,-78468
10248,-46471
10249,-27825
10250,-42407
10251,-78372
10252,-61821
10253,-34357
10254,-57642
10255,-68924
10256,-60376
10257,-25051
10258,-35938
10259,-64188
10260,-74751
10261,-33912
10262,-55139
10263,-70772
10264,-77083
10265,-28949
10266,-29948
10267,-47716
10268,-82770
10269,-44462
10270,-43846
10271,-69863
10272,-89607
10273,-40292
10274,-24110
10275,-40624
10276,-74709
10277,-63075
10278,-33604
10279,-55124
10280,-75949
10281,-61735
10282,-23586
10283,-35411
10284,-59365
10285,-79012
10286,-34360
10287,-47146
10288,-62289
10289,-76419
10290,-32285
10291,-30939
10292,-49227
10293,-85134
10294,-44061
10295,-41266
10296,-63228
10297,-75612
10298,-43929
10299,-26258
10300,-41670
10301,-74932
10302,-57174
10303,-34442
10304,-60984
10305,-72882
10306,-63802
10307,-24111
10308,-35621
10309,-63482
10310,-75599
10311,-33658
10312,-48319
10313,-72249
10314,-78199
10315,-25432
10316,-29251
10317,-46650
10318,-81412
10319,-46469
10320,-36835
10321,-60707
10322,-84588
10323,-44602
10324,-24143
10325,-38982
10326,-73691
10327,-65394
10328,-31404
10329,-50752
10330,-66774
10331,-59019
10332,-24213
10333,-34749
10334,-58551
10335,-75981
10336,-32530
10337,-45834
10338,-60682
10339,-72392
10340,-29762
10341,-29866
10342,-48574
10343,-84584
10344,-42041
10345,-38790
10346,-59711
10347,-79917
10348,-46176
10349,-23546
10350,-37264
10351,-65603
10352,-54358
10353,-33193
10354,-53805
10355,-81949
10356,-62734
10357,-20467
10358,-33494
10359,-55321
10360,-78879
10361,-35912
10362,-45801
10363,-69697
10364,-82046
10365,-31659
10366,-30461
10367,-48444
10368,-87053
10369,-47974
10370,-39356
10371,-55986
10372,-76208
10373,-47270
10374,-28134
10375,-43341
10376,-80406
10377,-64473
10378,-34426
10379,-58087
10380,-67619
10381,-63044
10382,-25534
10383,-36146
10384,-63535
10385,-77631
10386,-34821
10387,-51492
10388,-67511
10389,-78626
10390,-29801
10391,-30726
10392,-49888
10393,-86506
10394,-46484
10395,-40595
10396,-65104
10397,-82663
10398,-39016
10399,-24257
10400,-40542
10401,-77114
10402,-73612
10403,-33915
10404,-52109
10405,-70802
10406,-66113
10407,-25975
10408,-37517
10409,-59932
10410,-78741
10411,-34661
10412,-45114
10413,-60974
10414,-77714
10415,-34256
10416,-32509
10417,-51441
10418,-86008
10419,-43390
10420,-41541
10421,-63031
10422,-73477
10423,-44868
10424,-26402
10425,-40638
10426,-75759
10427,-60038
10428,-35299
10429,-61036
10430,-78544
10431,-69397
10432,-23672
10433,-34900
10434,-61817
10435,-80270
10436,-36069
10437,-47517
10438,-71871
10439,-81903
10440,-27271
10441,-30642
10442,-46157
10443,-83446
10444,-50361
10445,-37451
10446,-58527
10447,-78567
10448,-46197
10449,-26649
10450,-40935
10451,-72735
10452,-63541
10453,-32676
10454,-50949
10455,-66796
10456,-59579
10457,-25666
